# Matter power spectrum P(k) at redshift z=0
# for k=1.06175e-05 to 1.01957 h/Mpc,
# number of wavenumbers equal to 516
#    1:k (h/Mpc)              2:P (Mpc/h)^3        
       1.061747055156e-05       4.902583778777e+01 
       3.015075416349e-05       1.343654905572e+02 
       4.980967267482e-05       2.181980980282e+02 
       6.971602215962e-05       3.018811041536e+02 
       8.999554504324e-05       3.862385833313e+02 
       1.107804947636e-04       4.719549344530e+02 
       1.322123606753e-04       5.596742587070e+02 
       1.544448294559e-04       6.500432737838e+02 
       1.776470577736e-04       7.437369419150e+02 
       2.020073266432e-04       8.414777286933e+02 
       2.277371372523e-04       9.440521682176e+02 
       2.550757857175e-04       1.052326370144e+03 
       2.842954121899e-04       1.167260459544e+03 
       3.157064464574e-04       1.289922329771e+03 
       3.496632520653e-04       1.421498298735e+03 
       3.865695849320e-04       1.563299941627e+03 
       4.268832111516e-04       1.716763066312e+03 
       4.711186613643e-04       1.883435030235e+03 
       5.198466512368e-04       2.064944344640e+03 
       5.736882405968e-04       2.262946496512e+03 
       6.333015026906e-04       2.479039831880e+03 
       6.993586151089e-04       2.714647897894e+03 
       7.725122389849e-04       2.970870861326e+03 
       8.533521298743e-04       3.248316520650e+03 
       9.423560522272e-04       3.546935022491e+03 
       1.039842460211e-03       3.865888089291e+03 
       1.145934520152e-03       4.203490324965e+03 
       1.260544240190e-03       4.557252791507e+03 
       1.383381196341e-03       4.924030203438e+03 
       1.513983990058e-03       5.300253909735e+03 
       1.651766910625e-03       5.682195110096e+03 
       1.796071694535e-03       6.066207606388e+03 
       1.946215301006e-03       6.448909845216e+03 
       2.101527958560e-03       6.827314675207e+03 
       2.261379476463e-03       7.198883389222e+03 
       2.425194615491e-03       7.561559433822e+03 
       2.592459766150e-03       7.913709035959e+03 
       2.762723532119e-03       8.254109503628e+03 
       2.935593521915e-03       8.581878641907e+03 
       3.110731107918e-03       8.896426288822e+03 
       3.287845360179e-03       9.197400268997e+03 
       3.466686909948e-03       9.484641359389e+03 
       3.647042169322e-03       9.758143049238e+03 
       3.828728114452e-03       1.001801839528e+04 
       4.011587704142e-03       1.026447450896e+04 
       4.195485927728e-03       1.049778785742e+04 
       4.380306435641e-03       1.071828839501e+04 
       4.565948688420e-03       1.092634308874e+04 
       4.752325555596e-03       1.112234786522e+04 
       4.939361298608e-03       1.130667320158e+04 
       5.126989878068e-03       1.147981376837e+04 
       5.315153533082e-03       1.164212455879e+04 
       5.503801587824e-03       1.179412758703e+04 
       5.692889447483e-03       1.193616326843e+04 
       5.882377751882e-03       1.206809349086e+04 
       6.072231660394e-03       1.219141583457e+04 
       6.262420246259e-03       1.230589616453e+04 
       6.452915982226e-03       1.241210124116e+04 
       6.643694302522e-03       1.251039185478e+04 
       6.834733228800e-03       1.260095844210e+04 
       7.026013049789e-03       1.268394919614e+04 
       7.217516046181e-03       1.276011131003e+04 
       7.409226253676e-03       1.282951080746e+04 
       7.601129258353e-03       1.289244269059e+04 
       7.793212019442e-03       1.294925965152e+04 
       7.985462715435e-03       1.300063528720e+04 
       8.177870610099e-03       1.304606975145e+04 
       8.370425935527e-03       1.308619022805e+04 
       8.563119789788e-03       1.312124179914e+04 
       8.755944047151e-03       1.315142128181e+04 
       8.948891279139e-03       1.317696778726e+04 
       9.141954684949e-03       1.319810195276e+04 
       9.335128029995e-03       1.321494434915e+04 
       9.528405591494e-03       1.322779393066e+04 
       9.721782110199e-03       1.323679300600e+04 
       9.915252747493e-03       1.324168024640e+04 
       1.010881304716e-02       1.324388610739e+04 
       1.030245890129e-02       1.324231664525e+04 
       1.049618651977e-02       1.323753445027e+04 
       1.068999240294e-02       1.322968913473e+04 
       1.088387331715e-02       1.321897125017e+04 
       1.107782627266e-02       1.320538967562e+04 
       1.127184850383e-02       1.318912527811e+04 
       1.146593745123e-02       1.317035002903e+04 
       1.166009074549e-02       1.314913336886e+04 
       1.185430619272e-02       1.312564828301e+04 
       1.204858176120e-02       1.309989561347e+04 
       1.224291556946e-02       1.307195717709e+04 
       1.243730587535e-02       1.304206880945e+04 
       1.263175106613e-02       1.301020903391e+04 
       1.282624964944e-02       1.297653336319e+04 
       1.302080024511e-02       1.294108342488e+04 
       1.321540157762e-02       1.290404298959e+04 
       1.341005246928e-02       1.286526658288e+04 
       1.360475183391e-02       1.282500290610e+04 
       1.379949867118e-02       1.278332044917e+04 
       1.399429206130e-02       1.274022362578e+04 
       1.418913116022e-02       1.269579314703e+04 
       1.438401519522e-02       1.265009967909e+04 
       1.457894346083e-02       1.260323632584e+04 
       1.477391531511e-02       1.255517881556e+04 
       1.496893017622e-02       1.250601418557e+04 
       1.516398751929e-02       1.245581848744e+04 
       1.535908687348e-02       1.240467656424e+04 
       1.555422781930e-02       1.235254860303e+04 
       1.574940998620e-02       1.229947421671e+04 
       1.594463305024e-02       1.224561531965e+04 
       1.613989673204e-02       1.219094220740e+04 
       1.633520079483e-02       1.213550611429e+04 
       1.653054504269e-02       1.207937267029e+04 
       1.672592931890e-02       1.202251016485e+04 
       1.692135350443e-02       1.196492440348e+04 
       1.711681751656e-02       1.190680612095e+04 
       1.731232130759e-02       1.184770260177e+04 
       1.750786486369e-02       1.178820466450e+04 
       1.770344820376e-02       1.172855708433e+04 
       1.789907137852e-02       1.166822351629e+04 
       1.809473446951e-02       1.160800028390e+04 
       1.829043758833e-02       1.154684203485e+04 
       1.848618087583e-02       1.148489450482e+04 
       1.868196450143e-02       1.142329933629e+04 
       1.887778866248e-02       1.136057588997e+04 
       1.907365358369e-02       1.129793596077e+04 
       1.926955951664e-02       1.123546907363e+04 
       1.946550673924e-02       1.117173500256e+04 
       1.966149555537e-02       1.110830803416e+04 
       1.985752629450e-02       1.104495781656e+04 
       2.005359931135e-02       1.098062123409e+04 
       2.024971498558e-02       1.091683045477e+04 
       2.044587372158e-02       1.085248981336e+04 
       2.064207594825e-02       1.078763837453e+04 
       2.083832211878e-02       1.072298899788e+04 
       2.103461271058e-02       1.065855553591e+04 
       2.123094822509e-02       1.059339298213e+04 
       2.142732918776e-02       1.052871209619e+04 
       2.162375614796e-02       1.046327628144e+04 
       2.182022967898e-02       1.039824868128e+04 
       2.201675037803e-02       1.033312552092e+04 
       2.221331886625e-02       1.026775988803e+04 
       2.240993578878e-02       1.020268549345e+04 
       2.260660181484e-02       1.013729601751e+04 
       2.280331763786e-02       1.007213586837e+04 
       2.300008397552e-02       1.000696248796e+04 
       2.319690157002e-02       9.941640954760e+03 
       2.339377118813e-02       9.876490264389e+03 
       2.359069362149e-02       9.811361784123e+03 
       2.378766968673e-02       9.746351080874e+03 
       2.398470022576e-02       9.681391987046e+03 
       2.418178610603e-02       9.616527878710e+03 
       2.437892822077e-02       9.551804741606e+03 
       2.457612748927e-02       9.487091120816e+03 
       2.477338485726e-02       9.422385267734e+03 
       2.497070129720e-02       9.357883028468e+03 
       2.516807780861e-02       9.293554467462e+03 
       2.536551541849e-02       9.229335795735e+03 
       2.556301518169e-02       9.165244693065e+03 
       2.576057818130e-02       9.101520896113e+03 
       2.595820552912e-02       9.037754166920e+03 
       2.615589836608e-02       8.974007442684e+03 
       2.635365786270e-02       8.910551368895e+03 
       2.655148521962e-02       8.847448960729e+03 
       2.674938166805e-02       8.784295933076e+03 
       2.694734847035e-02       8.721486454736e+03 
       2.714538692054e-02       8.658747075363e+03 
       2.734349834489e-02       8.596419230180e+03 
       2.754168410248e-02       8.534199336012e+03 
       2.773994558584e-02       8.472016015509e+03 
       2.793828422156e-02       8.410252758570e+03 
       2.813670147096e-02       8.348687302922e+03 
       2.833519883072e-02       8.287361830213e+03 
       2.853377783363e-02       8.226272994245e+03 
       2.873244004927e-02       8.165419783874e+03 
       2.893118708475e-02       8.104842859594e+03 
       2.913002058550e-02       8.044482906493e+03 
       2.932894223602e-02       7.984403388817e+03 
       2.952795376074e-02       7.924600478239e+03 
       2.972705692481e-02       7.865049138012e+03 
       2.992625353498e-02       7.805854907440e+03 
       3.012554544050e-02       7.746771776667e+03 
       3.032493453403e-02       7.688022083045e+03 
       3.052442275255e-02       7.629680557188e+03 
       3.072401207839e-02       7.571422241397e+03 
       3.092370454020e-02       7.513661293882e+03 
       3.112350221395e-02       7.456063846617e+03 
       3.132340722405e-02       7.398712805340e+03 
       3.152342174440e-02       7.341770587560e+03 
       3.172354799952e-02       7.285083172631e+03 
       3.192378826572e-02       7.228759026138e+03 
       3.212414487228e-02       7.172589314632e+03 
       3.232462020268e-02       7.116801668657e+03 
       3.252521669586e-02       7.061347695457e+03 
       3.272593684753e-02       7.006317177024e+03 
       3.292678321150e-02       6.951472463797e+03 
       3.312775840104e-02       6.896901146516e+03 
       3.332886509034e-02       6.842697670006e+03 
       3.353010601594e-02       6.788849664987e+03 
       3.373148397823e-02       6.735321111279e+03 
       3.393300184303e-02       6.682088401203e+03 
       3.413466254315e-02       6.629202185329e+03 
       3.433646908007e-02       6.576651325249e+03 
       3.453842452559e-02       6.524388962927e+03 
       3.474053202360e-02       6.472479650567e+03 
       3.494279479190e-02       6.420970860270e+03 
       3.514521612398e-02       6.369674920987e+03 
       3.534779939101e-02       6.318767432447e+03 
       3.555054804375e-02       6.268260699698e+03 
       3.575346561460e-02       6.218033642258e+03 
       3.595655571969e-02       6.168095836957e+03 
       3.615982206102e-02       6.118484212319e+03 
       3.636326842870e-02       6.069329087390e+03 
       3.656689870323e-02       6.020428561353e+03 
       3.677071685787e-02       5.971861135539e+03 
       3.697472696106e-02       5.923689128670e+03 
       3.717893317896e-02       5.875803999156e+03 
       3.738333977805e-02       5.828281978723e+03 
       3.758795112779e-02       5.781082097697e+03 
       3.779277170337e-02       5.734254909320e+03 
       3.799780608864e-02       5.687744527521e+03 
       3.820305897896e-02       5.641567885890e+03 
       3.840853518433e-02       5.595751973052e+03 
       3.861423963251e-02       5.550318132552e+03 
       3.882017737225e-02       5.505131321677e+03 
       3.902635357670e-02       5.460339954873e+03 
       3.923277354683e-02       5.415873981839e+03 
       3.943944271507e-02       5.371767062532e+03 
       3.964636664901e-02       5.328013199905e+03 
       3.985355105525e-02       5.284539773088e+03 
       4.006100178334e-02       5.241459115268e+03 
       4.026872482996e-02       5.198699489692e+03 
       4.047672634314e-02       5.156241493833e+03 
       4.068501262666e-02       5.114129527242e+03 
       4.089359014465e-02       5.072428137500e+03 
       4.110246552631e-02       5.031018926430e+03 
       4.131164557080e-02       4.989933155059e+03 
       4.152113725231e-02       4.949188465560e+03 
       4.173094772538e-02       4.908743585417e+03 
       4.194108433029e-02       4.868648836423e+03 
       4.215155459876e-02       4.828893619640e+03 
       4.236236625982e-02       4.789489030706e+03 
       4.257352724590e-02       4.750387765251e+03 
       4.278504569915e-02       4.711593601760e+03 
       4.299692997802e-02       4.673172279918e+03 
       4.320918866407e-02       4.635058011923e+03 
       4.342183056906e-02       4.597211460368e+03 
       4.363486474232e-02       4.559755574818e+03 
       4.384830047839e-02       4.522628972567e+03 
       4.406214732497e-02       4.485790560207e+03 
       4.427641509123e-02       4.449277409239e+03 
       4.449111385639e-02       4.413069881458e+03 
       4.470625397869e-02       4.377187388712e+03 
       4.492184610473e-02       4.341621516583e+03 
       4.513790117914e-02       4.306364014127e+03 
       4.535443045479e-02       4.271428371763e+03 
       4.557144550325e-02       4.236791490114e+03 
       4.578895822582e-02       4.202459410499e+03 
       4.600698086501e-02       4.168436180651e+03 
       4.622552601647e-02       4.134727454692e+03 
       4.644460664153e-02       4.101310104629e+03 
       4.666423608014e-02       4.068176369852e+03 
       4.688442806457e-02       4.035382874173e+03 
       4.710519673359e-02       4.002864902311e+03 
       4.732655664733e-02       3.970640492394e+03 
       4.754852280283e-02       3.938713351171e+03 
       4.777111065028e-02       3.907086188129e+03 
       4.799433611004e-02       3.875739837349e+03 
       4.821821559047e-02       3.844679243443e+03 
       4.844276600653e-02       3.813901773396e+03 
       4.866800479933e-02       3.783426483679e+03 
       4.889394995667e-02       3.753231050705e+03 
       4.912062003444e-02       3.723301364753e+03 
       4.934803417920e-02       3.693659929964e+03 
       4.957621215181e-02       3.664287154535e+03 
       4.980517435231e-02       3.635201806405e+03 
       5.003494184598e-02       3.606362777484e+03 
       5.026553639078e-02       3.577818037944e+03 
       5.049698046622e-02       3.549528345430e+03 
       5.072929730371e-02       3.521513003389e+03 
       5.096251091852e-02       3.493750249667e+03 
       5.119664614344e-02       3.466271251993e+03 
       5.143172866428e-02       3.439023591071e+03 
       5.166778505728e-02       3.412051430079e+03 
       5.190484282855e-02       3.385314057994e+03 
       5.214293045581e-02       3.358867084609e+03 
       5.238207743234e-02       3.332624916564e+03 
       5.262231431356e-02       3.306656647979e+03 
       5.286367276619e-02       3.280926084567e+03 
       5.310618562033e-02       3.255426224752e+03 
       5.334988692463e-02       3.230208233105e+03 
       5.359481200464e-02       3.205159776853e+03 
       5.384099752483e-02       3.180402810039e+03 
       5.408848155424e-02       3.155868040088e+03 
       5.433730363629e-02       3.131562142581e+03 
       5.458750486291e-02       3.107478650221e+03 
       5.483912795339e-02       3.083624592072e+03 
       5.509221733821e-02       3.059975599215e+03 
       5.534681924838e-02       3.036604555643e+03 
       5.560298181062e-02       3.013377086387e+03 
       5.586075514886e-02       2.990402228757e+03 
       5.612019149261e-02       2.967662769834e+03 
       5.638134529267e-02       2.945097082467e+03 
       5.664427334492e-02       2.922736238195e+03 
       5.690903492276e-02       2.900625396763e+03 
       5.717569191893e-02       2.878655363408e+03 
       5.744430899758e-02       2.856915764660e+03 
       5.771495375748e-02       2.835387159706e+03 
       5.798769690729e-02       2.814028198621e+03 
       5.826261245398e-02       2.792842849796e+03 
       5.853977790569e-02       2.771904842232e+03 
       5.881927449027e-02       2.751049722525e+03 
       5.910118739093e-02       2.730476992415e+03 
       5.938560600079e-02       2.710032096259e+03 
       5.967262419795e-02       2.689787934700e+03 
       5.996234064324e-02       2.669684211219e+03 
       6.025485910283e-02       2.649760576012e+03 
       6.055028879825e-02       2.630011995811e+03 
       6.084874478657e-02       2.610401158171e+03 
       6.115034837398e-02       2.590969014058e+03 
       6.145522756619e-02       2.571680586262e+03 
       6.176351755980e-02       2.552550289118e+03 
       6.207536127886e-02       2.533550087045e+03 
       6.239090996199e-02       2.514670947359e+03 
       6.271032380547e-02       2.495998588830e+03 
       6.303377266903e-02       2.477438044439e+03 
       6.336143685157e-02       2.459000130909e+03 
       6.369350794520e-02       2.440669709997e+03 
       6.403018977721e-02       2.422484973089e+03 
       6.437169945089e-02       2.404331375981e+03 
       6.471826849763e-02       2.386382643262e+03 
       6.507014415491e-02       2.368443204934e+03 
       6.542759078649e-02       2.350629923040e+03 
       6.579089146420e-02       2.332927651836e+03 
       6.616034973332e-02       2.315330364899e+03 
       6.653629158740e-02       2.297775438809e+03 
       6.691906768253e-02       2.280389349148e+03 
       6.730905582601e-02       2.262966261404e+03 
       6.770666378052e-02       2.245620436723e+03 
       6.811233243209e-02       2.228287593933e+03 
       6.852653937874e-02       2.210805003396e+03 
       6.894980300710e-02       2.193756179720e+03 
       6.938268713715e-02       2.176384591546e+03 
       6.982580633029e-02       2.159121369884e+03 
       7.027983197489e-02       2.141879459993e+03 
       7.074549928627e-02       2.124566842212e+03 
       7.122361538642e-02       2.107258515662e+03 
       7.171506866341e-02       2.089828423669e+03 
       7.222083965369e-02       2.072310777906e+03 
       7.274201374429e-02       2.054635752376e+03 
       7.327979605900e-02       2.036912179156e+03 
       7.383552897702e-02       2.018920660098e+03 
       7.441071283880e-02       2.000825561523e+03 
       7.500703052840e-02       1.982438892361e+03 
       7.562637679189e-02       1.963751852078e+03 
       7.627089336872e-02       1.944720391855e+03 
       7.694301128911e-02       1.925373085439e+03 
       7.764550204329e-02       1.905513814500e+03 
       7.838153977698e-02       1.885134214452e+03 
       7.915477723576e-02       1.864114495074e+03 
       7.996943889488e-02       1.842362800125e+03 
       8.083043559174e-02       1.819840463554e+03 
       8.174350603419e-02       1.796174409752e+03 
       8.271539175535e-02       1.771436226723e+03 
       8.375405330011e-02       1.745199807050e+03 
       8.486893633712e-02       1.717364417112e+03 
       8.607129626872e-02       1.687554604253e+03 
       8.737458725639e-02       1.655264477367e+03 
       8.879491342320e-02       1.620251908828e+03 
       9.035152080074e-02       1.581701551042e+03 
       9.206726873696e-02       1.539139513619e+03 
       9.396894418783e-02       1.491625364412e+03 
       9.608715429094e-02       1.438408689841e+03 
       9.845534770304e-02       1.378661369339e+03 
       1.011073285082e-01       1.311710514238e+03 
       1.040726397486e-01       1.237481893924e+03 
       1.073698109332e-01       1.156649254212e+03 
       1.109990312159e-01       1.071199976497e+03 
       1.149377368995e-01       9.842771325640e+02 
       1.191427259409e-01       8.997894802280e+02 
       1.235590107266e-01       8.215546686910e+02 
       1.281310768615e-01       7.523698955593e+02 
       1.328112741371e-01       6.936022666747e+02 
       1.375631997919e-01       6.451802363743e+02 
