# dimensionless total [l(l+1)/2pi] C_l's
# for l=2 to 3000, i.e. number of multipoles equal to 2999
#
# -> if you prefer output in CAMB/HealPix/LensPix units/order, set 'format' to 'camb' in input file
# -> if you don't want to see such a header, set 'headers' to 'no' in input file
# -> for CMB lensing (phi), these are C_l^phi-phi for the lensing potential.
#    Remember the conversion factors:
#    C_l^dd (deflection) = l(l+1) C_l^phi-phi
#    C_l^gg (shear/convergence) = 1/4 (l(l+1))^2 C_l^phi-phi
#
# 1:l     2:TT                     3:EE                     4:TE                     5:BB                     6:phiphi                 7:TPhi                   8:Ephi               
    2       1.353622159025e-10       8.308241836757e-16       1.547353747670e-13       0.000000000000e+00       7.254708635048e-09       4.084318698022e-10      -8.095252958710e-13 
    3       1.293903477183e-10       1.077077706881e-15       1.739507768226e-13       0.000000000000e+00       4.375804100320e-09       2.837630281298e-10      -6.104208314691e-13 
    4       1.237535043960e-10       9.478696893582e-16       1.641876310718e-13       0.000000000000e+00       2.993315266781e-09       2.114866373451e-10      -3.962379049966e-13 
    5       1.196547326115e-10       6.536758597675e-16       1.437085677913e-13       0.000000000000e+00       2.202439806208e-09       1.648700917502e-10      -2.156234523798e-13 
    6       1.169441994825e-10       3.934126406771e-16       1.222752514935e-13       0.000000000000e+00       1.698241571064e-09       1.326602418811e-10      -8.198407662796e-14 
    7       1.153016385515e-10       2.457329380689e-16       1.048274085309e-13       0.000000000000e+00       1.353869691305e-09       1.093564104728e-10       3.838292627095e-15 
    8       1.145146071929e-10       1.889311414878e-16       9.293300339749e-14       0.000000000000e+00       1.106760652584e-09       9.189814415959e-11       4.806416077886e-14 
    9       1.143145559163e-10       1.707689234984e-16       8.646750218256e-14       0.000000000000e+00       9.226562662338e-10       7.842983376273e-11       6.059761716320e-14 
   10       1.146124564609e-10       1.574687133695e-16       8.455542031999e-14       0.000000000000e+00       7.813076257358e-10       6.779754381570e-11       5.258161432752e-14 
   11       1.152996281578e-10       1.431236288439e-16       8.609997966840e-14       0.000000000000e+00       6.590210789671e-10       5.982986431676e-11       3.457468180925e-14 
   12       1.162385545851e-10       1.355257013552e-16       9.013897852067e-14       0.000000000000e+00       5.712935242838e-10       5.266849070190e-11       1.457944942103e-14 
   13       1.174717415048e-10       1.411830887707e-16       9.589056945539e-14       0.000000000000e+00       4.997327350279e-10       4.671360380602e-11      -1.866087288042e-15 
   14       1.189076765651e-10       1.605057843909e-16       1.027444510759e-13       0.000000000000e+00       4.405710748022e-10       4.182943103849e-11      -1.204036414540e-14 
   15       1.205039957105e-10       1.908481890840e-16       1.103176538249e-13       0.000000000000e+00       3.910824593755e-10       3.759654850895e-11      -1.598197946885e-14 
   16       1.222677071339e-10       2.305765078110e-16       1.183467633837e-13       0.000000000000e+00       3.492515426361e-10       3.395558737544e-11      -1.498440973861e-14 
   17       1.241480932244e-10       2.801347237395e-16       1.266941973576e-13       0.000000000000e+00       3.135730170857e-10       3.082530730107e-11      -1.112914510317e-14 
   18       1.261513896847e-10       3.406536269301e-16       1.353031606856e-13       0.000000000000e+00       2.827797328178e-10       2.810308645072e-11      -6.679525667462e-15 
   19       1.282870546328e-10       4.126499842929e-16       1.441108725607e-13       0.000000000000e+00       2.563293672587e-10       2.575529521433e-11      -3.018941627309e-15 
   20       1.305022750217e-10       4.962260959263e-16       1.530204321983e-13       0.000000000000e+00       2.331569649742e-10       2.370187656570e-11      -1.247245383107e-15 
   21       1.328081100843e-10       5.917287577793e-16       1.619743776578e-13       0.000000000000e+00       2.128660632982e-10       2.188774691734e-11      -1.375275049741e-15 
   22       1.352027657676e-10       6.995898021056e-16       1.708999126187e-13       0.000000000000e+00       1.949397905111e-10       2.024085827637e-11      -2.872549528408e-15 
   23       1.376790944324e-10       8.207701739634e-16       1.796581782420e-13       0.000000000000e+00       1.791095897806e-10       1.876457917933e-11      -5.039204412591e-15 
   24       1.402097857370e-10       9.563620723435e-16       1.880814000772e-13       0.000000000000e+00       1.649876262864e-10       1.746647827783e-11      -7.037394947323e-15 
   25       1.428104346690e-10       1.107091009906e-15       1.960857947374e-13       0.000000000000e+00       1.523920838349e-10       1.632843819007e-11      -8.368549261014e-15 
   26       1.454911687324e-10       1.273580285638e-15       2.036044767808e-13       0.000000000000e+00       1.410796116169e-10       1.530916159191e-11      -8.710034286072e-15 
   27       1.482385293374e-10       1.456718231395e-15       2.105385140119e-13       0.000000000000e+00       1.309037066498e-10       1.437413881543e-11      -8.271887440470e-15 
   28       1.510237099564e-10       1.657471822731e-15       2.167841717581e-13       0.000000000000e+00       1.216783137563e-10       1.348797692937e-11      -7.465753084523e-15 
   29       1.538550643210e-10       1.876736528998e-15       2.222954439341e-13       0.000000000000e+00       1.133490290477e-10       1.265728637994e-11      -6.542320383607e-15 
   30       1.567417746005e-10       2.115381533982e-15       2.270505438456e-13       0.000000000000e+00       1.058186050019e-10       1.189841347027e-11      -5.749730837347e-15 
   31       1.596822242667e-10       2.374263996305e-15       2.310322209772e-13       0.000000000000e+00       9.892401011834e-11       1.122115243121e-11      -5.332328276688e-15 
   32       1.626784705171e-10       2.654215531142e-15       2.342066283913e-13       0.000000000000e+00       9.262493726036e-11       1.061929574816e-11      -5.289329539954e-15 
   33       1.657244075155e-10       2.956046487361e-15       2.365368939045e-13       0.000000000000e+00       8.687287552592e-11       1.007508575870e-11      -5.523345969081e-15 
   34       1.688067657451e-10       3.280577150581e-15       2.379829485001e-13       0.000000000000e+00       8.158246097531e-11       9.566907417258e-12      -5.909350217764e-15 
   35       1.719269336616e-10       3.628742835342e-15       2.384817673469e-13       0.000000000000e+00       7.672328845317e-11       9.090742954409e-12      -6.328471415421e-15 
   36       1.750849798797e-10       4.001525078846e-15       2.379596072218e-13       0.000000000000e+00       7.225287230172e-11       8.645450471792e-12      -6.642070465666e-15 
   37       1.782762234784e-10       4.399870927902e-15       2.363468143300e-13       0.000000000000e+00       6.810898603422e-11       8.228148102204e-12      -6.722331124916e-15 
   38       1.815022458712e-10       4.824509282430e-15       2.336124965552e-13       0.000000000000e+00       6.427885787313e-11       7.838789024078e-12      -6.594915494504e-15 
   39       1.847623112493e-10       5.276069659223e-15       2.297414120007e-13       0.000000000000e+00       6.074856935759e-11       7.476717791179e-12      -6.343830611644e-15 
   40       1.880496317391e-10       5.755126170983e-15       2.247251467139e-13       0.000000000000e+00       5.748207822331e-11       7.139209582082e-12      -6.075097241548e-15 
   41       1.913554753515e-10       6.262232840191e-15       2.185545527175e-13       0.000000000000e+00       5.443333474086e-11       6.822550305512e-12      -5.892583451160e-15 
   42       1.946845758051e-10       6.798053114195e-15       2.111932419319e-13       0.000000000000e+00       5.159197926685e-11       6.526143045410e-12      -5.812560376258e-15 
   43       1.980437045196e-10       7.363265686721e-15       2.025960654530e-13       0.000000000000e+00       4.894929665226e-11       6.249428052046e-12      -5.823770447759e-15 
   44       2.014370962219e-10       7.958527444317e-15       1.927161048585e-13       0.000000000000e+00       4.648453476837e-11       5.990637947892e-12      -5.910335898553e-15 
   45       2.048664335527e-10       8.584468363678e-15       1.815094272522e-13       0.000000000000e+00       4.417202158301e-11       5.747444324453e-12      -6.053176793336e-15 
   46       2.083314806047e-10       9.241677570412e-15       1.689514855246e-13       0.000000000000e+00       4.200729387158e-11       5.519357771617e-12      -6.235514410763e-15 
   47       2.118291441709e-10       9.930710812630e-15       1.550253035662e-13       0.000000000000e+00       3.998716287387e-11       5.305879537069e-12      -6.438476276085e-15 
   48       2.153529470296e-10       1.065209232253e-14       1.397170555716e-13       0.000000000000e+00       3.810185132512e-11       5.105766521860e-12      -6.639295174651e-15 
   49       2.188927530310e-10       1.140631324842e-14       1.230161639540e-13       0.000000000000e+00       3.633450743808e-11       4.916976648070e-12      -6.811093375968e-15 
   50       2.224385103372e-10       1.219382897256e-14       1.049106998830e-13       0.000000000000e+00       3.466613257859e-11       4.737283892707e-12      -6.930360787951e-15 
   51       2.259933167808e-10       1.301505384431e-14       8.537188590761e-14       0.000000000000e+00       3.309306871038e-11       4.566446947277e-12      -7.002283029280e-15 
   52       2.295634257449e-10       1.387036230697e-14       6.436555599699e-14       0.000000000000e+00       3.161341760762e-11       4.404534780994e-12      -7.041915394019e-15 
   53       2.331544541826e-10       1.476008830506e-14       4.185636504167e-14       0.000000000000e+00       3.022181626286e-11       4.251285853530e-12      -7.067232623807e-15 
   54       2.367712967930e-10       1.568452366387e-14       1.780766571522e-14       0.000000000000e+00       2.890920563111e-11       4.106084996373e-12      -7.099275199220e-15 
   55       2.404175529881e-10       1.664393071570e-14      -7.814001741757e-15       0.000000000000e+00       2.766550024944e-11       3.968168846711e-12      -7.156873572808e-15 
   56       2.440938377098e-10       1.763858756365e-14      -3.502385195198e-14       0.000000000000e+00       2.648890349882e-11       3.837354874329e-12      -7.238950959469e-15 
   57       2.477989006557e-10       1.866875122409e-14      -6.383038703404e-14       0.000000000000e+00       2.537850139039e-11       3.713452966539e-12      -7.338080420078e-15 
   58       2.515299741976e-10       1.973464332296e-14      -9.423962643971e-14       0.000000000000e+00       2.433144877690e-11       3.596038838455e-12      -7.445458193058e-15 
   59       2.552826685745e-10       2.083644903052e-14      -1.262550503681e-13       0.000000000000e+00       2.334285111790e-11       3.484439819001e-12      -7.550838736712e-15 
   60       2.590508670869e-10       2.197431599595e-14      -1.598775431795e-13       0.000000000000e+00       2.240564624495e-11       3.377720636926e-12      -7.642469771553e-15 
   61       2.628286634696e-10       2.314833004606e-14      -1.951063895205e-13       0.000000000000e+00       2.151251328602e-11       3.274943251154e-12      -7.709832309334e-15 
   62       2.666169192786e-10       2.435843831749e-14      -2.319426519902e-13       0.000000000000e+00       2.066236762202e-11       3.176046650303e-12      -7.752726389720e-15 
   63       2.704179990979e-10       2.560450690171e-14      -2.703864546652e-13       0.000000000000e+00       1.985512061796e-11       3.081140209370e-12      -7.774118747425e-15 
   64       2.742338190241e-10       2.688634079154e-14      -3.104359745643e-13       0.000000000000e+00       1.908972826169e-11       2.990241661972e-12      -7.777541351489e-15 
   65       2.780658066565e-10       2.820368207855e-14      -3.520874184649e-13       0.000000000000e+00       1.836413724932e-11       2.903271581583e-12      -7.767115447715e-15 
   66       2.819148610881e-10       2.955620815045e-14      -3.953349997182e-13       0.000000000000e+00       1.767523107067e-11       2.820047862760e-12      -7.747575601102e-15 
   67       2.857813128957e-10       3.094352988849e-14      -4.401709150654e-13       0.000000000000e+00       1.701877609473e-11       2.740280202378e-12      -7.724293738283e-15 
   68       2.896652644750e-10       3.236523559283e-14      -4.865867095435e-13       0.000000000000e+00       1.639052339150e-11       2.663659581849e-12      -7.702138777654e-15 
   69       2.935677805572e-10       3.382103712354e-14      -5.345777441796e-13       0.000000000000e+00       1.578989396457e-11       2.590160104502e-12      -7.681733455526e-15 
   70       2.974898681559e-10       3.531065026939e-14      -5.841395960797e-13       0.000000000000e+00       1.521694682019e-11       2.519788685257e-12      -7.662478740423e-15 
   71       3.014320878273e-10       3.683375101815e-14      -6.352667625321e-13       0.000000000000e+00       1.467126538132e-11       2.452492427367e-12      -7.643645501634e-15 
   72       3.053945233886e-10       3.838997492353e-14      -6.879526733247e-13       0.000000000000e+00       1.415193313157e-11       2.388155533340e-12      -7.624368771283e-15 
   73       3.093767516355e-10       3.997891647206e-14      -7.421897030617e-13       0.000000000000e+00       1.365750925909e-11       2.326596215863e-12      -7.603642006399e-15 
   74       3.133778120602e-10       4.160012845001e-14      -7.979691834803e-13       0.000000000000e+00       1.318600430054e-11       2.267563608726e-12      -7.580311350984e-15 
   75       3.173961765699e-10       4.325312131028e-14      -8.552814157676e-13       0.000000000000e+00       1.273485578493e-11       2.210734677747e-12      -7.553069898085e-15 
   76       3.214303364093e-10       4.493734857621e-14      -9.141144593495e-13       0.000000000000e+00       1.230154918610e-11       2.155794852639e-12      -7.520736803376e-15 
   77       3.254807534327e-10       4.665216137961e-14      -9.744502160392e-13       0.000000000000e+00       1.188566534638e-11       2.102703726243e-12      -7.483166070509e-15 
   78       3.295482112929e-10       4.839684444377e-14      -1.036267650874e-12       0.000000000000e+00       1.148716389502e-11       2.051472419710e-12      -7.440493832440e-15 
   79       3.336332124618e-10       5.017062840661e-14      -1.099543939727e-12       0.000000000000e+00       1.110576011821e-11       2.002082809772e-12      -7.392868303218e-15 
   80       3.377359606046e-10       5.197268890123e-14      -1.164254456539e-12       0.000000000000e+00       1.074091383551e-11       1.954486156431e-12      -7.340449881174e-15 
   81       3.418563429541e-10       5.380214563651e-14      -1.230372760541e-12       0.000000000000e+00       1.039181827640e-11       1.908601730650e-12      -7.283411252096e-15 
   82       3.459939126851e-10       5.565806147768e-14      -1.297870583484e-12       0.000000000000e+00       1.005738895673e-11       1.864315442040e-12      -7.221937492413e-15 
   83       3.501478712885e-10       5.753944152690e-14      -1.366717816866e-12       0.000000000000e+00       9.736252555222e-12       1.821478466551e-12      -7.156226172372e-15 
   84       3.543174510461e-10       5.944526323735e-14      -1.436883628996e-12       0.000000000000e+00       9.427072082819e-12       1.779946651750e-12      -7.086610550140e-15 
   85       3.585031739165e-10       6.137457450534e-14      -1.508340056931e-12       0.000000000000e+00       9.129608693426e-12       1.739709244434e-12      -7.013952393616e-15 
   86       3.627057700003e-10       6.332641022969e-14      -1.581058989360e-12       0.000000000000e+00       8.843816322915e-12       1.700779086487e-12      -6.939314772112e-15 
   87       3.669257852543e-10       6.529976233210e-14      -1.655011095829e-12       0.000000000000e+00       8.569515656105e-12       1.663153057841e-12      -6.863846895407e-15 
   88       3.711635705901e-10       6.729357935930e-14      -1.730165832965e-12       0.000000000000e+00       8.306388655233e-12       1.626811389505e-12      -6.788786285681e-15 
   89       3.754192709729e-10       6.930676608519e-14      -1.806491450687e-12       0.000000000000e+00       8.053973088424e-12       1.591716976586e-12      -6.715460949452e-15 
   90       3.796928145199e-10       7.133818311304e-14      -1.883954998423e-12       0.000000000000e+00       7.811657058162e-12       1.557814691325e-12      -6.645291549511e-15 
   91       3.839839015990e-10       7.338664647759e-14      -1.962522331329e-12       0.000000000000e+00       7.578673529765e-12       1.525030696117e-12      -6.579793576859e-15 
   92       3.882919939276e-10       7.545092724721e-14      -2.042158116502e-12       0.000000000000e+00       7.354094859852e-12       1.493271756541e-12      -6.520579522639e-15 
   93       3.926165770237e-10       7.752976969154e-14      -2.122825655856e-12       0.000000000000e+00       7.137047812573e-12       1.462447802566e-12      -6.468941252127e-15 
   94       3.969580163911e-10       7.962194977402e-14      -2.204486310775e-12       0.000000000000e+00       6.927407484737e-12       1.432544985809e-12      -6.424520559509e-15 
   95       4.013168105479e-10       8.172622476197e-14      -2.287100002015e-12       0.000000000000e+00       6.725198116385e-12       1.403562391076e-12      -6.386441749766e-15 
   96       4.056933220950e-10       8.384131530393e-14      -2.370625388993e-12       0.000000000000e+00       6.530379490117e-12       1.375489404299e-12      -6.353710078357e-15 
   97       4.100877705661e-10       8.596590528664e-14      -2.455019873476e-12       0.000000000000e+00       6.342844486165e-12       1.348305344686e-12      -6.325208160663e-15 
   98       4.145002252792e-10       8.809864169202e-14      -2.540239603291e-12       0.000000000000e+00       6.162416637462e-12       1.321979096876e-12      -6.299692381420e-15 
   99       4.189305981876e-10       9.023813445422e-14      -2.626239476016e-12       0.000000000000e+00       5.988847684712e-12       1.296468743084e-12      -6.275789304157e-15 
  100       4.233786367301e-10       9.238295631655e-14      -2.712973142687e-12       0.000000000000e+00       5.821815131461e-12       1.271721195257e-12      -6.251992080639e-15 
  101       4.278439166827e-10       9.453164268855e-14      -2.800393011489e-12       0.000000000000e+00       5.660919799170e-12       1.247671827223e-12      -6.226656860298e-15 
  102       4.323258350089e-10       9.668269150292e-14      -2.888450251464e-12       0.000000000000e+00       5.505683382279e-12       1.224244106842e-12      -6.197999199679e-15 
  103       4.368236027111e-10       9.883456307257e-14      -2.977094796206e-12       0.000000000000e+00       5.355546003285e-12       1.201349228158e-12      -6.164090471869e-15 
  104       4.413364945929e-10       1.009857141340e-13      -3.066276029529e-12       0.000000000000e+00       5.209990491026e-12       1.178907544884e-12      -6.123314264829e-15 
  105       4.458646523711e-10       1.031347055229e-13      -3.155944939993e-12       0.000000000000e+00       5.068939601272e-12       1.156916960612e-12      -6.075813525007e-15 
  106       4.504083772296e-10       1.052801088453e-13      -3.246052265679e-12       0.000000000000e+00       4.932408146599e-12       1.135393134356e-12      -6.022233117951e-15 
  107       4.549678783220e-10       1.074204738194e-13      -3.336547849261e-12       0.000000000000e+00       4.800380025142e-12       1.114348377480e-12      -5.963278742821e-15 
