# dimensionless total lensed [l(l+1)/2pi] C_l's
# for l=2 to 2500, i.e. number of multipoles equal to 2499
#
# -> if you prefer output in CAMB/HealPix/LensPix units/order, set 'format' to 'camb' in input file
# -> if you don't want to see such a header, set 'headers' to 'no' in input file
# -> for CMB lensing (phi), these are C_l^phi-phi for the lensing potential.
#    Remember the conversion factors:
#    C_l^dd (deflection) = l(l+1) C_l^phi-phi
#    C_l^gg (shear/convergence) = 1/4 (l(l+1))^2 C_l^phi-phi
#
# 1:l     2:TT                     3:EE                     4:TE                     5:BB                     6:phiphi                 7:TPhi                   8:Ephi               
    2       3.663397690118e-10       2.820249882382e-13       2.020405240174e-12       1.021101131071e-19       6.633887580531e-09       1.118273597008e-09      -1.488068880376e-11 
    3       3.048449527229e-10       2.721841808400e-13       2.656921268197e-12       2.058553117435e-19       4.265877409189e-09       7.922233458345e-10      -1.000818258830e-11 
    4       2.605648423836e-10       1.698962626821e-13       2.370990658405e-12       3.466656939845e-19       3.070597090888e-09       6.002291504746e-10      -5.557233238329e-12 
    5       2.301038695507e-10       8.035583440214e-14       1.649763352022e-12       5.265563372755e-19       2.357071348971e-09       4.753017345483e-10      -2.583615210230e-12 
    6       2.091578124943e-10       3.453398639471e-14       9.211478660051e-13       7.479087481729e-19       1.885671185606e-09       3.888851482166e-10      -1.036916803657e-12 
    7       1.943092478203e-10       2.078226753435e-14       4.331681499684e-13       1.013386358258e-18       1.553515428680e-09       3.265241270705e-10      -5.163329725658e-13 
    8       1.832659469063e-10       2.134620793422e-14       2.333339368240e-13       1.325839854763e-18       1.308377984621e-09       2.798028236919e-10      -5.526387835163e-13 
    9       1.746554568553e-10       2.547964211763e-14       2.410866141266e-13       1.688205625446e-18       1.121195940127e-09       2.434842334214e-10      -7.625940673178e-13 
   10       1.677507943518e-10       2.812952962922e-14       3.338290827904e-13       2.103400835012e-18       9.743684573544e-10       2.142656150067e-10      -9.159324410893e-13 
   11       1.622029220563e-10       2.750970864411e-14       4.113678983165e-13       2.574218766037e-18       8.436993846505e-10       1.900146815107e-10      -9.267986020428e-13 
   12       1.578288215386e-10       2.425930818882e-14       4.266547959794e-13       3.103228046943e-18       7.482684025894e-10       1.696374779943e-10      -8.348645171043e-13 
   13       1.545362000290e-10       2.035303794604e-14       3.846153101603e-13       3.692679253522e-18       6.688822991261e-10       1.524166740700e-10      -7.013163993049e-13 
   14       1.520128055910e-10       1.757653797375e-14       3.211730108025e-13       4.344422113542e-18       6.019943922823e-10       1.378054144800e-10      -5.880293368911e-13 
   15       1.500271849328e-10       1.662992684518e-14       2.756713452626e-13       5.059836175171e-18       5.450118558310e-10       1.253480779932e-10      -5.237390662657e-13 
   16       1.484710156250e-10       1.715180481079e-14       2.709062245725e-13       5.839777332107e-18       4.959977763434e-10       1.146249944212e-10      -5.029997324332e-13 
   17       1.471801465137e-10       1.820864954418e-14       3.042715093363e-13       6.684542047768e-18       4.534781487695e-10       1.052563165568e-10      -5.014911273754e-13 
   18       1.461030293993e-10       1.880521744345e-14       3.553824786541e-13       7.593842240705e-18       4.161815310683e-10       9.692585674136e-11      -4.934987442517e-13 
   19       1.453013695401e-10       1.857479567018e-14       4.031259064479e-13       8.566849266303e-18       3.836173850847e-10       8.955313664191e-11      -4.707135190112e-13 
   20       1.447637252255e-10       1.744031967052e-14       4.264522989128e-13       9.602124746748e-18       3.546530469628e-10       8.294363043256e-11      -4.318256106621e-13 
   21       1.444991745633e-10       1.584612021091e-14       4.248546437036e-13       1.069778667906e-17       3.289083276950e-10       7.702322573000e-11      -3.866695098774e-13 
   22       1.444590641460e-10       1.445507048621e-14       4.072300101705e-13       1.185142960865e-17       3.058323368773e-10       7.167018904006e-11      -3.492088636323e-13 
   23       1.445965970335e-10       1.356131422557e-14       3.854139824362e-13       1.306034556181e-17       2.851593660618e-10       6.686144662946e-11      -3.238706264549e-13 
   24       1.448310110042e-10       1.327739478348e-14       3.725263705760e-13       1.432144368893e-17       2.664641230287e-10       6.254227770848e-11      -3.106076063088e-13 
   25       1.451602383287e-10       1.337130328381e-14       3.724824022132e-13       1.563153828587e-17       2.495627991977e-10       5.864848174954e-11      -3.041541572875e-13 
   26       1.455843424864e-10       1.346732898744e-14       3.841862156804e-13       1.698724301283e-17       2.341840871832e-10       5.507706427643e-11      -2.971666866430e-13 
   27       1.461143863100e-10       1.334194502588e-14       3.976722177214e-13       1.838524609286e-17       2.201710753344e-10       5.179204577396e-11      -2.868327532488e-13 
   28       1.467502451096e-10       1.285105487273e-14       4.006836064721e-13       1.982225299652e-17       2.073100210458e-10       4.875752490860e-11      -2.720797842737e-13 
   29       1.475086442206e-10       1.211639423348e-14       3.919770287345e-13       2.129539139772e-17       1.955527328052e-10       4.596944042587e-11      -2.545535080204e-13 
   30       1.483926848327e-10       1.138607513981e-14       3.743195287253e-13       2.280196609018e-17       1.847902943272e-10       4.340890965704e-11      -2.372364775013e-13 
   31       1.493864625977e-10       1.091530317855e-14       3.514606489187e-13       2.433949855625e-17       1.748242266118e-10       4.103638044997e-11      -2.230514338334e-13 
   32       1.504844710237e-10       1.074444696897e-14       3.276047409808e-13       2.590618868431e-17       1.656151760658e-10       3.884362001433e-11      -2.119020818177e-13 
   33       1.516688074747e-10       1.083722935933e-14       3.078814353851e-13       2.750069954728e-17       1.571091116226e-10       3.681692756497e-11      -2.024910624660e-13 
   34       1.529118453408e-10       1.113469547149e-14       2.965694480055e-13       2.912213833009e-17       1.492001597917e-10       3.492992431814e-11      -1.934843419887e-13 
   35       1.542202159868e-10       1.155016915590e-14       2.901829862621e-13       3.077024164768e-17       1.418561294307e-10       3.317266883955e-11      -1.850383425930e-13 
   36       1.556038003235e-10       1.196917836945e-14       2.818493407168e-13       3.244533960852e-17       1.350263054379e-10       3.153016923272e-11      -1.777956056391e-13 
   37       1.570653845902e-10       1.228770970944e-14       2.649963207512e-13       3.414827415641e-17       1.286313178198e-10       2.998132363501e-11      -1.724025226119e-13 
   38       1.586086775520e-10       1.254580994053e-14       2.401645001514e-13       3.588011206988e-17       1.226600250304e-10       2.852602327550e-11      -1.692200078005e-13 
   39       1.602313059535e-10       1.283839241478e-14       2.104321818467e-13       3.764241508205e-17       1.170983238867e-10       2.716556578512e-11      -1.685164121540e-13 
   40       1.619215246607e-10       1.328113791627e-14       1.796562938173e-13       3.943737223166e-17       1.118995219248e-10       2.589461429342e-11      -1.705411849656e-13 
   41       1.636639416413e-10       1.397435670527e-14       1.516200347379e-13       4.126757712591e-17       1.070018019136e-10       2.470355005125e-11      -1.752744774437e-13 
   42       1.654610826751e-10       1.487732004534e-14       1.270209540130e-13       4.313516814986e-17       1.023943838679e-10       2.358792702799e-11      -1.815854094914e-13 
   43       1.673173424799e-10       1.589519408073e-14       1.055872131150e-13       4.504248144572e-17       9.806804824558e-11       2.254106190718e-11      -1.877945458625e-13 
   44       1.692325412707e-10       1.691168115525e-14       8.688425611683e-14       4.699231757403e-17       9.399518999014e-11       2.155093081899e-11      -1.918777774133e-13 
   45       1.712042496745e-10       1.781615079370e-14       7.015243228584e-14       4.898754457519e-17       9.014047381446e-11       2.060444761768e-11      -1.919273381382e-13 
   46       1.732366266589e-10       1.859772148800e-14       5.378998110678e-14       5.102970663108e-17       8.650009644112e-11       1.970278932512e-11      -1.877464512195e-13 
   47       1.753334771589e-10       1.927712820775e-14       3.569526428206e-14       5.312004204571e-17       8.307173740234e-11       1.884995553276e-11      -1.796973193818e-13 
   48       1.774954451197e-10       1.988110010184e-14       1.338382178467e-14       5.525986983485e-17       7.984267373186e-11       1.804834216496e-11      -1.682689092212e-13 
   49       1.797197337398e-10       2.044271665021e-14      -1.603217961218e-14       5.745059046589e-17       7.678899481300e-11       1.729860179641e-11      -1.540846096326e-13 
   50       1.820016387070e-10       2.099786471617e-14      -5.505569309413e-14       5.969330566569e-17       7.388322621185e-11       1.659977507326e-11      -1.378720158318e-13 
   51       1.843402875790e-10       2.157264968831e-14      -1.031401116342e-13       6.198755446664e-17       7.112146235612e-11       1.595005109460e-11      -1.203448447594e-13 
   52       1.867339747152e-10       2.219318286546e-14      -1.586661753300e-13       6.433223535331e-17       6.850224153196e-11       1.534597197807e-11      -1.023022050086e-13 
   53       1.891782946168e-10       2.288935046715e-14      -2.196704648799e-13       6.672594042977e-17       6.601840039679e-11       1.478205588179e-11      -8.466940649423e-14 
   54       1.916659474871e-10       2.369498629827e-14      -2.838278916558e-13       6.916693823310e-17       6.365668454430e-11       1.425067007967e-11      -6.850383655538e-14 
   55       1.941900816341e-10       2.463976278222e-14      -3.488886657442e-13       7.165313994040e-17       6.140206099586e-11       1.374391686151e-11      -5.476314845781e-14 
   56       1.967557384587e-10       2.572210952890e-14      -4.141564316995e-13       7.418202753165e-17       5.925280237802e-11       1.326013063219e-11      -4.352892921634e-14 
   57       1.993709100706e-10       2.692986959338e-14      -4.793466634313e-13       7.675067767756e-17       5.720846785255e-11       1.279877251274e-11      -3.460046664699e-14 
   58       2.020431961394e-10       2.824784494378e-14      -5.441645508370e-13       7.935575933738e-17       5.526532774565e-11       1.235851147859e-11      -2.771222916870e-14 
   59       2.047797472537e-10       2.965764646497e-14      -6.083051968088e-13       8.199351592545e-17       5.341615730482e-11       1.193717585659e-11      -2.253048134927e-14 
   60       2.075872082804e-10       3.113754396233e-14      -6.714538142390e-13       8.465974747779e-17       5.165003045589e-11       1.153170482197e-11      -1.864989945130e-14 
   61       2.104706976310e-10       3.266673612565e-14      -7.333877316129e-13       8.735027814317e-17       4.995550952654e-11       1.113905271926e-11      -1.566993503324e-14 
   62       2.134306054657e-10       3.423961974737e-14      -7.943087196658e-13       9.006252162156e-17       4.833151764849e-11       1.075924895193e-11      -1.345159218334e-14 
   63       2.164649730309e-10       3.585447178875e-14      -8.545859480792e-13       9.279423705850e-17       4.677855190705e-11       1.039294197408e-11      -1.191254322037e-14 
   64       2.195703078314e-10       3.750930248667e-14      -9.146641186670e-13       9.554307234081e-17       4.529540618166e-11       1.004048916461e-11      -1.095162939331e-14 
   65       2.227414963997e-10       3.920184559941e-14      -9.750668926914e-13       9.830656166207e-17       4.387907265425e-11       9.701938556560e-12      -1.044800677281e-14 
   66       2.259717170648e-10       4.092954865231e-14      -1.036400318178e-12       1.010821230882e-16       4.252464331766e-11       9.377010566523e-12      -1.026029214261e-14 
   67       2.292523527219e-10       4.268956318354e-14      -1.099356257233e-12       1.038670561231e-16       4.122521148401e-11       9.065079724003e-12      -1.022570889098e-14 
   68       2.325752308645e-10       4.447913879304e-14      -1.164558304389e-12       1.066590610622e-16       3.997380526822e-11       8.765419890629e-12      -1.019348133544e-14 
   69       2.359400657362e-10       4.629691981067e-14      -1.232055626093e-12       1.094579246971e-16       3.876986313350e-11       8.478038456648e-12      -1.013478436913e-14 
   70       2.393483743783e-10       4.814189505135e-14      -1.301732245523e-12       1.122641733751e-16       3.761389955598e-11       8.202979129103e-12      -1.005364051187e-14 
   71       2.428012555780e-10       5.001301782171e-14      -1.373454886690e-12       1.150785921476e-16       3.650554345615e-11       7.940062072712e-12      -9.954664105002e-15 
   72       2.462993621586e-10       5.190920649325e-14      -1.447072373394e-12       1.179022356809e-16       3.544349167592e-11       7.688872378113e-12      -9.843083121911e-15 
   73       2.498428732694e-10       5.382934507553e-14      -1.522415028175e-12       1.207364391665e-16       3.442546245572e-11       7.448748530120e-12      -9.724760978405e-15 
   74       2.534314666756e-10       5.577228378929e-14      -1.599294071269e-12       1.235828292316e-16       3.344814891153e-11       7.218770875963e-12      -9.606218343181e-15 
   75       2.570642910483e-10       5.773683963967e-14      -1.677501019559e-12       1.264433348498e-16       3.250717251196e-11       6.997750093545e-12      -9.494654948260e-15 
   76       2.607403924780e-10       5.972173929858e-14      -1.756844486350e-12       1.293199365130e-16       3.159821821241e-11       6.784526725500e-12      -9.396350991713e-15 
   77       2.644601450599e-10       6.172543446019e-14      -1.837269656642e-12       1.322138368233e-16       3.072078167327e-11       6.578958332426e-12      -9.311486586477e-15 
   78       2.682240320516e-10       6.374625369953e-14      -1.918759607994e-12       1.351261577743e-16       2.987502401697e-11       6.381092237277e-12      -9.238412849136e-15 
   79       2.720321966939e-10       6.578245657619e-14      -2.001300005701e-12       1.380581945253e-16       2.906062885975e-11       6.190865359417e-12      -9.175177267084e-15 
   80       2.758844238157e-10       6.783223302453e-14      -2.084879268689e-12       1.410114209449e-16       2.827678001953e-11       6.008099061516e-12      -9.119512281192e-15 
   81       2.797801214380e-10       6.989370274383e-14      -2.169488735395e-12       1.439874951541e-16       2.752213922383e-11       5.832493996462e-12      -9.068823868478e-15 
   82       2.837183023778e-10       7.196491458843e-14      -2.255122829661e-12       1.469882650699e-16       2.679482381766e-11       5.663624954266e-12      -9.020180124773e-15 
   83       2.876975658527e-10       7.404384595798e-14      -2.341779226615e-12       1.500157739484e-16       2.609238447143e-11       5.500935708963e-12      -8.970299847396e-15 
   84       2.917164292323e-10       7.612846182525e-14      -2.429447608206e-12       1.530716216226e-16       2.541242913036e-11       5.343879111314e-12      -8.916276748372e-15 
   85       2.957744267792e-10       7.821690439923e-14      -2.518073424621e-12       1.561549144027e-16       2.475466254066e-11       5.192375338935e-12      -8.857915048888e-15 
   86       2.998711601752e-10       8.030733393223e-14      -2.607588401485e-12       1.592639838957e-16       2.411914553414e-11       5.046420519604e-12      -8.795761944066e-15 
   87       3.040059522423e-10       8.239787226450e-14      -2.697921390584e-12       1.623969958867e-16       2.350566758621e-11       4.905945567888e-12      -8.730407330456e-15 
   88       3.081778344317e-10       8.448660321666e-14      -2.788998343973e-12       1.655519450528e-16       2.291373538490e-11       4.770813473159e-12      -8.662484752251e-15 
   89       3.123855343128e-10       8.657157298219e-14      -2.880742288099e-12       1.687266496787e-16       2.234256140001e-11       4.640816587601e-12      -8.592672347490e-15 
   90       3.166274630623e-10       8.865079051992e-14      -2.973073297913e-12       1.719187463704e-16       2.179105245221e-11       4.515673914226e-12      -8.521693794265e-15 
   91       3.209017029535e-10       9.072222794654e-14      -3.065908470989e-12       1.751256847708e-16       2.125779828213e-11       4.395028394882e-12      -8.450319256934e-15 
   92       3.252059948448e-10       9.278382092906e-14      -3.159161901640e-12       1.783447222738e-16       2.074106011946e-11       4.278444198265e-12      -8.379366332320e-15 
   93       3.295381653242e-10       9.483350677446e-14      -3.252749194241e-12       1.815733054424e-16       2.023920060232e-11       4.165510869958e-12      -8.309543205287e-15 
   94       3.338975088046e-10       9.686934439927e-14      -3.346601835900e-12       1.848102913627e-16       1.975207232840e-11       4.056179591382e-12      -8.240949076236e-15 
   95       3.382835911311e-10       9.888941321306e-14      -3.440654947642e-12       1.880549010644e-16       1.927981797915e-11       3.950472715344e-12      -8.173499997702e-15 
   96       3.426958220584e-10       1.008917779267e-13      -3.534842973745e-12       1.913063492071e-16       1.882244227688e-11       3.848380181762e-12      -8.107078766832e-15 
   97       3.471334487747e-10       1.028744894624e-13      -3.629099718166e-12       1.945638441038e-16       1.837980661215e-11       3.749858272563e-12      -8.041533705634e-15 
   98       3.515955494260e-10       1.048355858635e-13      -3.723358380970e-12       1.978265877435e-16       1.795162367128e-11       3.654828366567e-12      -7.976677441213e-15 
   99       3.560810266400e-10       1.067730932046e-13      -3.817551594750e-12       2.010937758138e-16       1.753745206375e-11       3.563175694377e-12      -7.912285686014e-15 
  100       3.605886010504e-10       1.086850265012e-13      -3.911611461059e-12       2.043645977244e-16       1.713669094967e-11       3.474748093267e-12      -7.848096018062e-15 
  101       3.651168048207e-10       1.105693906203e-13      -4.005469586829e-12       2.076382366296e-16       1.674857466721e-11       3.389354762074e-12      -7.783806661208e-15 
  102       3.696639751688e-10       1.124241811895e-13      -4.099057120802e-12       2.109138694514e-16       1.637216736007e-11       3.306765016081e-12      -7.719075265363e-15 
  103       3.742282478905e-10       1.142473855075e-13      -4.192304789953e-12       2.141906669022e-16       1.600635760486e-11       3.226707041913e-12      -7.653517686746e-15 
  104       3.788077822097e-10       1.160370271237e-13      -4.285142718154e-12       2.174681994912e-16       1.565011985246e-11       3.148930167804e-12      -7.586802474101e-15 
  105       3.834014838670e-10       1.177913044754e-13      -4.377499775818e-12       2.207477179558e-16       1.530335054516e-11       3.073403936242e-12      -7.518951490876e-15 
  106       3.880083680915e-10       1.195084727621e-13      -4.469304209896e-12       2.240310466460e-16       1.496613545651e-11       3.000143727083e-12      -7.450077817791e-15 
  107       3.926273331115e-10       1.211868033212e-13      -4.560483887423e-12       2.273201974165e-16       1.463849055252e-11       2.929149103033e-12      -7.380293507226e-15 
