# dimensionless total lensed [l(l+1)/2pi] C_l's
# for l=2 to 2500, i.e. number of multipoles equal to 2499
#
# -> if you prefer output in CAMB/HealPix/LensPix units/order, set 'format' to 'camb' in input file
# -> if you don't want to see such a header, set 'headers' to 'no' in input file
# -> for CMB lensing (phi), these are C_l^phi-phi for the lensing potential.
#    Remember the conversion factors:
#    C_l^dd (deflection) = l(l+1) C_l^phi-phi
#    C_l^gg (shear/convergence) = 1/4 (l(l+1))^2 C_l^phi-phi
#
# 1:l     2:TT                     3:EE                     4:TE                     5:BB                     6:phiphi                 7:TPhi                   8:Ephi               
    2       1.381677193245e-10       4.179731639311e-15       3.519338329702e-13       2.309816201392e-19       8.236367876808e-09       4.535746810443e-10      -1.842359457677e-12 
    3       1.306696391938e-10       5.354811728146e-15       3.955015570071e-13       4.620583129987e-19       5.068757930307e-09       3.217368438180e-10      -1.394919937054e-12 
    4       1.236017875253e-10       4.629636251040e-15       3.698084051198e-13       7.703065527543e-19       3.524741210432e-09       2.436997820217e-10      -9.127420716079e-13 
    5       1.183100781482e-10       3.087195241925e-15       3.148767198962e-13       1.155847847376e-18       2.631980104117e-09       1.925368520019e-10      -5.069340491708e-13 
    6       1.146813398149e-10       1.726131534979e-15       2.535645932953e-13       1.618829687279e-18       2.056887139236e-09       1.566785477827e-10      -2.081013694953e-13 
    7       1.123168679362e-10       9.336982293224e-16       1.990688579553e-13       2.159422813286e-18       1.660292177799e-09       1.303590245567e-10      -1.764539874300e-14 
    8       1.109367494905e-10       6.038793509447e-16       1.571589254864e-13       2.777818126633e-18       1.372926152981e-09       1.103958387452e-10       7.941437922840e-14 
    9       1.102928772808e-10       4.859034757357e-16       1.291081463964e-13       3.474223332520e-18       1.156601649095e-09       9.490316649077e-11       1.064379920610e-13 
   10       1.101545086372e-10       4.150003300345e-16       1.135880757549e-13       4.248859415166e-18       9.888508065290e-10       8.262923229027e-11       8.927941781175e-14 
   11       1.104629393047e-10       3.497497747786e-16       1.079366436375e-13       5.101957045314e-18       8.333804338545e-10       7.300893197658e-11       5.203148022694e-14 
   12       1.110664719798e-10       3.057951149354e-16       1.090961899217e-13       6.033753020676e-18       7.283489598754e-10       6.455587487214e-11       1.227611356250e-14 
   13       1.119147904374e-10       2.941345337955e-16       1.143824390389e-13       7.044486835814e-18       6.421078094760e-10       5.769180552067e-11      -1.798982934903e-14 
   14       1.129605685776e-10       3.068006111111e-16       1.217751119517e-13       8.134397470720e-18       5.703409172397e-10       5.171509837295e-11      -3.451231947979e-14 
   15       1.141904412795e-10       3.320504211032e-16       1.299847367361e-13       9.303720477137e-18       5.099194144804e-10       4.668822650566e-11      -3.750072543627e-14 
   16       1.155291181916e-10       3.673605899485e-16       1.383482299425e-13       1.055268542883e-17       4.585371762199e-10       4.235497977140e-11      -3.091273118842e-14 
   17       1.170042151955e-10       4.182601298577e-16       1.466478167642e-13       1.188151378713e-17       4.144517856770e-10       3.857281803597e-11      -1.994047989165e-14 
   18       1.185525336689e-10       4.901788315106e-16       1.551404255820e-13       1.329041703628e-17       3.761812869085e-10       3.527412804331e-11      -9.473414786802e-15 
   19       1.201853230275e-10       5.834446721344e-16       1.640480040065e-13       1.477959636979e-17       3.431210248429e-10       3.241160516857e-11      -2.117023430312e-15 
   20       1.218953407912e-10       6.960575972605e-16       1.735113021151e-13       1.634923993857e-17       3.139983646734e-10       2.986964349639e-11       4.178269078877e-16 
   21       1.236840714159e-10       8.273748340423e-16       1.834831731605e-13       1.799952535211e-17       2.883573028533e-10       2.760239876842e-11      -1.297259828318e-15 
   22       1.255254539305e-10       9.769054910390e-16       1.937767758394e-13       1.973061666039e-17       2.655859216337e-10       2.555359345033e-11      -5.508461707390e-15 
   23       1.274243654131e-10       1.144848834084e-15       2.040648857002e-13       2.154266827344e-17       2.453721981453e-10       2.371510272323e-11      -1.047332982657e-14 
   24       1.293744511821e-10       1.331436294539e-15       2.139327954729e-13       2.343582189074e-17       2.272498698251e-10       2.207082089611e-11      -1.433774500897e-14 
   25       1.313776581064e-10       1.536753776161e-15       2.230927963448e-13       2.541021208187e-17       2.110064531861e-10       2.060003506030e-11      -1.626981464600e-14 
   26       1.334227323794e-10       1.761075690308e-15       2.312984478532e-13       2.746596258524e-17       1.963485930287e-10       1.926615348256e-11      -1.593287986858e-14 
   27       1.355046567832e-10       2.006416262480e-15       2.384327153460e-13       2.960319165884e-17       1.831009162420e-10       1.805183265192e-11      -1.394330106843e-14 
   28       1.376117126920e-10       2.275307297240e-15       2.444500245400e-13       3.182200955065e-17       1.710354972429e-10       1.693810811769e-11      -1.130856253818e-14 
   29       1.397530606326e-10       2.569154990305e-15       2.494202745035e-13       3.412252717265e-17       1.600910558944e-10       1.592301488494e-11      -8.694735850107e-15 
   30       1.419331504135e-10       2.888993752134e-15       2.534892679464e-13       3.650484888642e-17       1.501504339358e-10       1.500081071842e-11      -6.780478169655e-15 
   31       1.441459632027e-10       3.235823380538e-15       2.568050700577e-13       3.896907246714e-17       1.410112931629e-10       1.415705848911e-11      -6.191141174958e-15 
   32       1.463945081771e-10       3.610701890392e-15       2.593115396097e-13       4.151529996239e-17       1.326266384469e-10       1.338328302159e-11      -6.736423285617e-15 
   33       1.486759529899e-10       4.014679191523e-15       2.608762390499e-13       4.414363071331e-17       1.249373354879e-10       1.266605756992e-11      -7.873598850102e-15 
   34       1.509805648809e-10       4.448721329090e-15       2.613513297512e-13       4.685416002641e-17       1.178359741114e-10       1.198863287849e-11      -9.000936475257e-15 
   35       1.533105466277e-10       4.913545528334e-15       2.606073143474e-13       4.964698442232e-17       1.112863422177e-10       1.135296918046e-11      -9.838901180824e-15 
   36       1.556660582324e-10       5.409714412148e-15       2.585087225888e-13       5.252219835374e-17       1.052360371954e-10       1.076465526501e-11      -1.017387927044e-14 
   37       1.580429910431e-10       5.937762211732e-15       2.549324835481e-13       5.547989234087e-17       9.960648317834e-11       1.022630153859e-11      -9.836398003990e-15 
   38       1.604453688276e-10       6.498509057217e-15       2.498654307350e-13       5.852015092529e-17       9.438322801948e-11       9.735756686024e-12      -8.978538411207e-15 
   39       1.628758975306e-10       7.092844233131e-15       2.433397278291e-13       6.164305417637e-17       8.954978423738e-11       9.286770907932e-12      -7.891995521799e-15 
   40       1.653319185869e-10       7.721640752177e-15       2.354083746029e-13       6.484867831927e-17       8.506015956806e-11       8.869054150616e-12      -6.939730705562e-15 
   41       1.678081893247e-10       8.385710173540e-15       2.261241051119e-13       6.813709280807e-17       8.085489913789e-11       8.471408650059e-12      -6.460874125925e-15 
   42       1.703076787571e-10       9.085651833662e-15       2.154648075975e-13       7.150835025206e-17       7.692168114181e-11       8.093139482158e-12      -6.437144466424e-15 
   43       1.728333297483e-10       9.821952808936e-15       2.033859358332e-13       7.496249331326e-17       7.325011418333e-11       7.735807864925e-12      -6.725578223356e-15 
   44       1.753846818235e-10       1.059502384863e-14       1.898404904899e-13       7.849955726998e-17       6.981355248369e-11       7.400004359505e-12      -7.146639735373e-15 
   45       1.779594623166e-10       1.140524013279e-14       1.747803507166e-13       8.211956624533e-17       6.657862533540e-11       7.085485368933e-12      -7.523983700622e-15 
   46       1.805597247702e-10       1.225308766151e-14       1.581614192583e-13       8.582252089367e-17       6.354027269117e-11       6.791841664938e-12      -7.823244135158e-15 
   47       1.831869698566e-10       1.313905371118e-14       1.399395278015e-13       8.960840678348e-17       6.069498225342e-11       6.517877870568e-12      -8.050893393446e-15 
   48       1.858401535613e-10       1.406358436099e-14       1.200687637119e-13       9.347719735641e-17       5.803022159968e-11       6.261329752261e-12      -8.215977698738e-15 
   49       1.885154598041e-10       1.502708300688e-14       9.850127651328e-14       9.742885357193e-17       5.552376727443e-11       6.018787951016e-12      -8.330277207286e-15 
   50       1.912084610284e-10       1.602988245605e-14       7.519244105308e-14       1.014633235403e-16       5.315040318931e-11       5.786672352509e-12      -8.408765195712e-15 
   51       1.939218188754e-10       1.707215572822e-14       5.011844818528e-14       1.055805421285e-16       5.090571581883e-11       5.564643939541e-12      -8.470761214169e-15 
   52       1.966592807325e-10       1.815397847369e-14       2.326315436571e-14       1.097804306330e-16       4.878759823562e-11       5.352987213028e-12      -8.539367624360e-15 
   53       1.994233621801e-10       1.927535061205e-14      -5.386800547002e-15       1.140628964348e-16       4.678912888991e-11       5.151614305094e-12      -8.641367842987e-15 
   54       2.022152319877e-10       2.043619360294e-14      -3.584193473363e-14       1.184278326429e-16       4.489824749232e-11       4.960038152083e-12      -8.807400482337e-15 
   55       2.050352579581e-10       2.163639685818e-14      -6.811010434865e-14       1.228751261286e-16       4.310143729847e-11       4.777607797218e-12      -9.062249419672e-15 
   56       2.078850667167e-10       2.287597673279e-14      -1.021972298184e-13       1.274046847796e-16       4.139658569594e-11       4.604344208483e-12      -9.392490358053e-15 
   57       2.107657941798e-10       2.415495225018e-14      -1.381066474024e-13       1.320164163927e-16       3.978275074645e-11       4.440265106262e-12      -9.771111997572e-15 
   58       2.136773822236e-10       2.547329862410e-14      -1.758388383157e-13       1.367102208488e-16       3.825627033043e-11       4.285124772868e-12      -1.016648956661e-14 
   59       2.166184894281e-10       2.683094644396e-14      -2.153913794628e-13       1.414859900840e-16       3.681059412332e-11       4.138397438396e-12      -1.054217386872e-14 
   60       2.195864018202e-10       2.822778086011e-14      -2.567588941719e-13       1.463436080605e-16       3.543611557200e-11       3.999260666570e-12      -1.085668032957e-14 
   61       2.225782929326e-10       2.966356307783e-14      -2.999334372554e-13       1.512829662516e-16       3.412284093282e-11       3.866824403083e-12      -1.107296068879e-14 
   62       2.255955364114e-10       3.113767609050e-14      -3.449058626443e-13       1.563040142241e-16       3.286947658032e-11       3.740915784952e-12      -1.118977969200e-14 
   63       2.286402074375e-10       3.264932016809e-14      -3.916646767078e-13       1.614067204097e-16       3.167609256444e-11       3.621441809640e-12      -1.121703894590e-14 
   64       2.317137733068e-10       3.419758229739e-14      -4.401955962334e-13       1.665910580472e-16       3.054138907891e-11       3.508150572388e-12      -1.116681010960e-14 
   65       2.348170469859e-10       3.578143290223e-14      -4.904815129418e-13       1.718570056450e-16       2.946261845547e-11       3.400622446753e-12      -1.105343116448e-14 
   66       2.379501406686e-10       3.739972256369e-14      -5.425024580018e-13       1.772045474447e-16       2.843550715802e-11       3.298261265144e-12      -1.089360268415e-14 
   67       2.411124193322e-10       3.905117874030e-14      -5.962355665454e-13       1.826336738843e-16       2.745417777684e-11       3.200285499354e-12      -1.070648410436e-14 
   68       2.443031087592e-10       4.073453731360e-14      -6.516566347417e-13       1.881443902104e-16       2.651271941142e-11       3.105928725522e-12      -1.051011351040e-14 
   69       2.475233664837e-10       4.244897550795e-14      -7.087452367108e-13       1.937367433075e-16       2.561044268677e-11       3.015107901321e-12      -1.030960940498e-14 
   70       2.507745489678e-10       4.419376120273e-14      -7.674805854481e-13       1.994108011620e-16       2.474755430115e-11       2.927875277814e-12      -1.010674026733e-14 
   71       2.540575650912e-10       4.596812603396e-14      -8.278400371541e-13       2.051666458540e-16       2.392356764597e-11       2.844217691333e-12      -9.903391715581e-15 
   72       2.573728464454e-10       4.777126556267e-14      -8.897990964798e-13       2.110043742280e-16       2.313726695827e-11       2.764053096561e-12      -9.701568749009e-15 
   73       2.607203176284e-10       4.960233944337e-14      -9.533314217720e-13       2.169240985654e-16       2.238667147320e-11       2.687227099610e-12      -9.503397990233e-15 
   74       2.640993665391e-10       5.146047159245e-14      -1.018408830319e-12       2.229259472556e-16       2.166899957646e-11       2.613509491096e-12      -9.311129927457e-15 
   75       2.675088146716e-10       5.334475035662e-14      -1.085001303594e-12       2.290100654678e-16       2.098063295679e-11       2.542590779226e-12      -9.127141156687e-15 
   76       2.709475023839e-10       5.525416503655e-14      -1.153076598082e-12       2.351766085592e-16       2.031801508185e-11       2.474163839633e-12      -8.953623303388e-15 
   77       2.744162335831e-10       5.718740172213e-14      -1.222598984209e-12       2.414257194294e-16       1.968061502071e-11       2.408193718073e-12      -8.791579340769e-15 
   78       2.779161333419e-10       5.914301035978e-14      -1.293530285913e-12       2.477575482373e-16       1.906844147200e-11       2.344690957444e-12      -8.641647468622e-15 
   79       2.814480475651e-10       6.111946397615e-14      -1.365830251865e-12       2.541722598123e-16       1.848113996891e-11       2.283629152043e-12      -8.504394081915e-15 
   80       2.850125258952e-10       6.311515754140e-14      -1.439456552630e-12       2.606700341770e-16       1.791797619074e-11       2.224943226037e-12      -8.380309588121e-15 
   81       2.886098046173e-10       6.512840683257e-14      -1.514364777821e-12       2.672510670699e-16       1.737781927445e-11       2.168527711930e-12      -8.269804224556e-15 
   82       2.922397895637e-10       6.715744729690e-14      -1.590508433261e-12       2.739155704678e-16       1.685912512611e-11       2.114235029028e-12      -8.173203875702e-15 
   83       2.959020390192e-10       6.920043291519e-14      -1.667838938135e-12       2.806637731090e-16       1.635991973251e-11       2.061873761905e-12      -8.090745890549e-15 
   84       2.995960491444e-10       7.125550532676e-14      -1.746306148698e-12       2.874959174716e-16       1.587827904951e-11       2.011256369811e-12      -8.022305449315e-15 
   85       3.033222020580e-10       7.332101686093e-14      -1.825860035367e-12       2.944122489912e-16       1.541389663036e-11       1.962355173350e-12      -7.966531705057e-15 
   86       3.070809443142e-10       7.539534256732e-14      -1.906449279736e-12       3.014130260056e-16       1.496674648778e-11       1.915169190976e-12      -7.921560098073e-15 
   87       3.108724865253e-10       7.747681328520e-14      -1.988020778664e-12       3.084985235965e-16       1.453660140365e-11       1.869676129610e-12      -7.885260490708e-15 
   88       3.146967913509e-10       7.956371568766e-14      -2.070519650288e-12       3.156690340519e-16       1.412302458636e-11       1.825831493878e-12      -7.855228456099e-15 
   89       3.185535614873e-10       8.165429232582e-14      -2.153889240022e-12       3.229248673300e-16       1.372536132818e-11       1.783567695353e-12      -7.828776566930e-15 
   90       3.224422276566e-10       8.374674167304e-14      -2.238071126573e-12       3.302663515215e-16       1.334273066257e-11       1.742793161793e-12      -7.802925684177e-15 
   91       3.263619365964e-10       8.583921816915e-14      -2.323005127939e-12       3.376938333134e-16       1.297401702162e-11       1.703391446377e-12      -7.774396245866e-15 
   92       3.303115390487e-10       8.792983226460e-14      -2.408629307424e-12       3.452076784517e-16       1.261786189329e-11       1.665220336950e-12      -7.739599555817e-15 
   93       3.342899385052e-10       9.001667861698e-14      -2.494880847513e-12       3.528082799661e-16       1.227298621331e-11       1.628146637082e-12      -7.695463800187e-15 
   94       3.382972235281e-10       9.209792543534e-14      -2.581698808832e-12       3.604960832530e-16       1.193923112638e-11       1.592158427878e-12      -7.642073128680e-15 
   95       3.423336843163e-10       9.417173871749e-14      -2.669021799170e-12       3.682715656387e-16       1.161665905915e-11       1.557268121988e-12      -7.580411231994e-15 
   96       3.463994601597e-10       9.623625571995e-14      -2.756787160267e-12       3.761352295161e-16       1.130523318114e-11       1.523477900472e-12      -7.511564690310e-15 
   97       3.504945323808e-10       9.828958538857e-14      -2.844930985721e-12       3.840876029146e-16       1.100481360212e-11       1.490779311701e-12      -7.436725720216e-15 
   98       3.546187172759e-10       1.003298087892e-13      -2.933388138921e-12       3.921292400694e-16       1.071515356930e-11       1.459152870256e-12      -7.357194921631e-15 
   99       3.587716590563e-10       1.023549795382e-13      -3.022092270957e-12       4.002607219915e-16       1.043589566471e-11       1.428567655829e-12      -7.274384024723e-15 
  100       3.629528227900e-10       1.043631242334e-13      -3.110975838546e-12       4.084826570371e-16       1.016656800242e-11       1.398980912123e-12      -7.189818636833e-15 
  101       3.671614873427e-10       1.063522428843e-13      -3.199970121950e-12       4.167956814774e-16       9.906580425899e-12       1.370337645753e-12      -7.105140989398e-15 
  102       3.713967383195e-10       1.083203093434e-13      -3.289005242896e-12       4.252004600681e-16       9.655220705241e-12       1.342570225145e-12      -7.022112684868e-15 
  103       3.756574610060e-10       1.102652717359e-13      -3.378010182497e-12       4.336976866193e-16       9.411650734503e-12       1.315597979440e-12      -6.942617443636e-15 
  104       3.799425748755e-10       1.121851040290e-13      -3.466913363205e-12       4.422880644441e-16       9.175096550238e-12       1.289346129049e-12      -6.868256926362e-15 
  105       3.842517883931e-10       1.140779677432e-13      -3.555644445606e-12       4.509722434712e-16       8.945455811229e-12       1.263806353635e-12      -6.799070103348e-15 
  106       3.885849334897e-10       1.159420729902e-13      -3.644132808882e-12       4.597508756593e-16       8.722765673105e-12       1.238983696313e-12      -6.734645206342e-15 
  107       3.929417287508e-10       1.177756302662e-13      -3.732307032285e-12       4.686246347042e-16       8.507014642435e-12       1.214877776223e-12      -6.674509500991e-15 
