# Matter power spectrum P(k) at redshift z=0
# for k=5.98241e-06 to 1.00266 h/Mpc,
# number of wavenumbers equal to 705
#    1:k (h/Mpc)              2:P (Mpc/h)^3        
       5.982408221613e-06       2.233303585063e+02 
       1.187229051205e-05       4.330124050492e+02 
       1.776719358262e-05       6.392040379482e+02 
       2.367042790170e-05       8.433264501060e+02 
       2.958531675475e-05       1.046105308103e+03 
       3.551520245779e-05       1.248009511121e+03 
       4.146345261770e-05       1.449383886531e+03 
       4.743346645787e-05       1.650504294226e+03 
       5.342868122777e-05       1.851604237769e+03 
       5.945257871496e-05       2.052889847887e+03 
       6.550869187834e-05       2.254548695876e+03 
       7.160061162170e-05       2.456755545599e+03 
       7.773199372662e-05       2.659676190645e+03 
       8.390656596405e-05       2.863470197555e+03 
       9.012813540421e-05       3.068292936185e+03 
       9.640059594457e-05       3.274297029248e+03 
       1.027279360758e-04       3.481633714996e+03 
       1.091142469061e-04       3.690453720924e+03 
       1.155637304633e-04       3.900908162638e+03 
       1.220807082969e-04       4.113149058377e+03 
       1.286696303978e-04       4.327330445941e+03 
       1.353350844582e-04       4.543608188217e+03 
       1.420818054901e-04       4.762141517915e+03 
       1.489146858222e-04       4.983092431943e+03 
       1.558387854945e-04       5.206627039661e+03 
       1.628593430674e-04       5.432915572518e+03 
       1.699817868628e-04       5.662132934750e+03 
       1.772117466517e-04       5.894459164206e+03 
       1.845550658009e-04       6.130079872044e+03 
       1.920178138903e-04       6.369186685733e+03 
       1.996062998064e-04       6.611977775942e+03 
       2.073270853159e-04       6.858657837114e+03 
       2.151869991182e-04       7.109439424115e+03 
       2.231931513688e-04       7.364542877906e+03 
       2.313529486598e-04       7.624196235058e+03 
       2.396741094359e-04       7.888636965004e+03 
       2.481646798131e-04       8.158111722916e+03 
       2.568330497586e-04       8.432586818441e+03 
       2.656879695761e-04       8.711588422085e+03 
       2.747385666248e-04       8.996337859037e+03 
       2.839943621868e-04       9.287115058251e+03 
       2.934652883734e-04       9.584211074058e+03 
       3.031617049431e-04       9.887928223850e+03 
       3.130944158760e-04       1.019858053859e+04 
       3.232746855218e-04       1.051649428562e+04 
       3.337142541102e-04       1.084200810783e+04 
       3.444253523733e-04       1.117547204945e+04 
       3.554207149979e-04       1.151725068011e+04 
       3.667135925801e-04       1.186772251711e+04 
       3.783177617141e-04       1.222727629853e+04 
       3.902475328030e-04       1.259631575031e+04 
       4.025177551274e-04       1.297525765751e+04 
       4.151438186667e-04       1.336453223853e+04 
       4.281416521152e-04       1.376458121058e+04 
       4.415277164945e-04       1.417585889117e+04 
       4.553189937217e-04       1.459883153928e+04 
       4.695329694598e-04       1.503397427439e+04 
       4.841876095539e-04       1.548177528041e+04 
       4.993013293458e-04       1.594272794668e+04 
       5.148929551665e-04       1.641733481379e+04 
       5.309816773346e-04       1.690609853302e+04 
       5.475869940394e-04       1.740953504072e+04 
       5.647286455732e-04       1.792814543870e+04 
       5.824265384903e-04       1.846244309858e+04 
       6.007006594246e-04       1.901293140779e+04 
       6.195709784894e-04       1.958010130827e+04 
       6.390573424121e-04       2.016443423112e+04 
       6.591793578296e-04       2.076640086531e+04 
       6.799562654716e-04       2.138644500590e+04 
       7.014068062927e-04       2.202499091246e+04 
       7.235490809656e-04       2.268243121502e+04 
       7.464004045037e-04       2.335912945124e+04 
       7.699771581292e-04       2.405540736124e+04 
       7.942946408219e-04       2.477154820693e+04 
       8.193669232533e-04       2.550779001974e+04 
       8.452067070174e-04       2.626431392246e+04 
       8.718251921825e-04       2.704125936903e+04 
       8.992319562053e-04       2.783870255657e+04 
       9.274348471469e-04       2.865665417518e+04 
       9.564398939089e-04       2.949507874930e+04 
       9.862512358699e-04       3.035385912303e+04 
       1.016871073852e-03       3.123284080773e+04 
       1.048299643807e-03       3.213177240886e+04 
       1.080535213997e-03       3.305037963083e+04 
       1.113574105800e-03       3.398829435297e+04 
       1.147410737604e-03       3.494510634557e+04 
       1.182037690623e-03       3.592034742216e+04 
       1.217445794890e-03       3.691350367461e+04 
       1.253624233188e-03       3.792400897395e+04 
       1.290560660275e-03       3.895125858793e+04 
       1.328241334512e-03       3.999458098521e+04 
       1.366651258812e-03       4.105334185129e+04 
       1.405774327832e-03       4.212679346034e+04 
       1.445593478387e-03       4.321424560540e+04 
       1.486090840245e-03       4.431491937140e+04 
       1.527247884720e-03       4.542808037621e+04 
       1.569045568785e-03       4.655294558923e+04 
       1.611464472792e-03       4.768874799785e+04 
       1.654484930224e-03       4.883471751412e+04 
       1.698087148307e-03       4.999008598477e+04 
       1.742251318633e-03       5.115409284633e+04 
       1.786957717282e-03       5.232599459541e+04 
       1.832186794234e-03       5.350504763080e+04 
       1.877919252085e-03       5.469054072560e+04 
       1.924136114329e-03       5.588175810168e+04 
       1.970818783612e-03       5.707802720012e+04 
       2.017949090497e-03       5.827867927255e+04 
       2.065509333383e-03       5.948306953090e+04 
       2.113482310274e-03       6.069058124431e+04 
       2.161851343133e-03       6.190061082212e+04 
       2.210600295556e-03       6.311257902412e+04 
       2.259713584508e-03       6.432596995151e+04 
       2.309176186823e-03       6.554020855188e+04 
       2.358973641145e-03       6.675480452556e+04 
       2.409092045952e-03       6.796932490769e+04 
       2.459518054232e-03       6.918319015237e+04 
       2.510238865359e-03       7.039609447367e+04 
       2.561242214658e-03       7.160751213841e+04 
       2.612516361073e-03       7.281709048277e+04 
       2.664050073356e-03       7.402443779282e+04 
       2.715832615082e-03       7.522871392201e+04 
       2.767853728823e-03       7.642859686803e+04 
       2.820103619711e-03       7.762672108743e+04 
       2.872572938625e-03       7.882103572502e+04 
       2.925252765184e-03       8.001126843610e+04 
       2.978134590721e-03       8.119780114951e+04 
       3.031210301339e-03       8.238002910852e+04 
       3.084472161197e-03       8.355741360312e+04 
       3.137912796081e-03       8.473066379276e+04 
       3.191525177357e-03       8.589915681051e+04 
       3.245302606343e-03       8.706160377024e+04 
       3.299238699159e-03       8.821820530453e+04 
       3.353327372073e-03       8.936929837216e+04 
       3.407562827371e-03       9.051413445022e+04 
       3.461939539765e-03       9.165305579005e+04 
       3.516452243346e-03       9.278558726070e+04 
       3.571095919083e-03       9.391148615951e+04 
       3.625865782855e-03       9.503111497343e+04 
       3.680757274029e-03       9.614381033786e+04 
       3.735766044557e-03       9.725136628543e+04 
       3.790887948585e-03       9.835010472541e+04 
       3.846119032556e-03       9.944156398468e+04 
       3.901455525803e-03       1.005260055357e+05 
       3.956893831602e-03       1.016030672012e+05 
       4.012430518667e-03       1.026728419031e+05 
       4.068062313086e-03       1.037349116305e+05 
       4.123786090660e-03       1.047892433609e+05 
       4.179598869641e-03       1.058358426718e+05 
       4.235497803840e-03       1.068746532074e+05 
       4.291480176102e-03       1.079057616889e+05 
       4.347543392114e-03       1.089288748008e+05 
       4.403684974548e-03       1.099436659020e+05 
       4.459902557498e-03       1.109506113960e+05 
       4.516193881227e-03       1.119494069199e+05 
       4.572556787182e-03       1.129401129781e+05 
       4.628989213274e-03       1.139225548846e+05 
       4.685489189413e-03       1.148967130885e+05 
       4.742054833274e-03       1.158626100549e+05 
       4.798684346293e-03       1.168201531723e+05 
       4.855376009871e-03       1.177692777925e+05 
       4.912128181785e-03       1.187097552430e+05 
       4.968939292782e-03       1.196421570942e+05 
       5.025807843360e-03       1.205659028857e+05 
       5.082732400718e-03       1.214809569234e+05 
       5.139711595862e-03       1.223877773583e+05 
       5.196744120872e-03       1.232859149296e+05 
       5.253828726307e-03       1.241755523021e+05 
       5.310964218752e-03       1.250563951274e+05 
       5.368149458486e-03       1.259290089840e+05 
       5.425383357282e-03       1.267924601437e+05 
       5.482664876319e-03       1.276473568901e+05 
       5.539993024198e-03       1.284937252649e+05 
       5.597366855071e-03       1.293314255634e+05 
       5.654785466863e-03       1.301604669162e+05 
       5.712247999585e-03       1.309808060787e+05 
       5.769753633744e-03       1.317930395229e+05 
       5.827301588824e-03       1.325956092296e+05 
       5.884891121856e-03       1.333898101710e+05 
       5.942521526059e-03       1.341754686846e+05 
       6.000192129554e-03       1.349529031622e+05 
       6.057902294141e-03       1.357206980658e+05 
       6.115651414146e-03       1.364808750726e+05 
       6.173438915328e-03       1.372317236079e+05 
       6.231264253834e-03       1.379740825203e+05 
       6.289126915228e-03       1.387071942527e+05 
       6.347026413551e-03       1.394328455275e+05 
       6.404962290446e-03       1.401487711509e+05 
       6.462934114323e-03       1.408567884507e+05 
       6.520941479572e-03       1.415561296677e+05 
       6.578984005813e-03       1.422466142678e+05 
       6.637061337199e-03       1.429289344435e+05 
       6.695173141744e-03       1.436024037866e+05 
       6.753319110693e-03       1.442673349460e+05 
       6.811498957934e-03       1.449237150580e+05 
       6.869712419436e-03       1.455715212828e+05 
       6.927959252720e-03       1.462109952851e+05 
       6.986239236364e-03       1.468420472443e+05 
       7.044552169534e-03       1.474644831306e+05 
       7.102897871551e-03       1.480785786092e+05 
       7.161276181472e-03       1.486843331032e+05 
       7.219686957710e-03       1.492814595451e+05 
       7.278130077671e-03       1.498702558994e+05 
       7.336605437419e-03       1.504508207720e+05 
       7.395112951362e-03       1.510234861447e+05 
       7.453652551960e-03       1.515871533059e+05 
       7.512224189455e-03       1.521433152802e+05 
       7.570827831625e-03       1.526905185955e+05 
       7.629463463552e-03       1.532301440108e+05 
       7.688131087410e-03       1.537612543100e+05 
       7.746830722280e-03       1.542845913400e+05 
       7.805562403970e-03       1.547995748764e+05 
       7.864326184864e-03       1.553062939706e+05 
       7.923122133779e-03       1.558048724998e+05 
       7.981950335848e-03       1.562962547266e+05 
       8.040810892406e-03       1.567791893663e+05 
       8.099703920908e-03       1.572538084909e+05 
       8.158629554846e-03       1.577211684274e+05 
       8.217587943693e-03       1.581797827799e+05 
       8.276579252854e-03       1.586312404459e+05 
       8.335603663639e-03       1.590751895649e+05 
       8.394661373238e-03       1.595108549975e+05 
       8.453752594723e-03       1.599389308628e+05 
       8.512877557056e-03       1.603592717036e+05 
       8.572036505109e-03       1.607714226201e+05 
       8.631229699703e-03       1.611764105379e+05 
       8.690457417659e-03       1.615741239979e+05 
       8.749719951852e-03       1.619637002060e+05 
       8.809017611293e-03       1.623461117927e+05 
       8.868350721214e-03       1.627209436702e+05 
       8.927719623165e-03       1.630885000564e+05 
       8.987124675132e-03       1.634485117066e+05 
       9.046566251654e-03       1.638012791964e+05 
       9.106044743968e-03       1.641466282332e+05 
       9.165560560152e-03       1.644847832451e+05 
       9.225114125292e-03       1.648156220923e+05 
       9.284705881652e-03       1.651399191331e+05 
       9.344336288866e-03       1.654558742969e+05 
       9.404005824134e-03       1.657653128233e+05 
       9.463714982436e-03       1.660676275929e+05 
       9.523464276757e-03       1.663630426747e+05 
       9.583254238323e-03       1.666513702707e+05 
       9.643085416858e-03       1.669327425744e+05 
       9.702958380841e-03       1.672077101212e+05 
       9.762873717789e-03       1.674749271176e+05 
       9.822832034547e-03       1.677354562560e+05 
       9.882833957594e-03       1.679897416729e+05 
       9.942880133358e-03       1.682368640439e+05 
       1.000297122856e-02       1.684780349221e+05 
       1.006310793054e-02       1.687118702513e+05 
       1.012329094766e-02       1.689393338611e+05 
       1.018352100963e-02       1.691597953900e+05 
       1.024379886794e-02       1.693743824291e+05 
       1.030412529627e-02       1.695823603706e+05 
       1.036450109088e-02       1.697839119360e+05 
       1.042492707110e-02       1.699792343347e+05 
       1.048540407974e-02       1.701677110809e+05 
       1.054593298361e-02       1.703500283805e+05 
       1.060651467398e-02       1.705259860068e+05 
       1.066715006713e-02       1.706959519365e+05 
       1.072784010485e-02       1.708602860873e+05 
       1.078858575499e-02       1.710175804672e+05 
       1.084938801205e-02       1.711692938321e+05 
       1.091024789778e-02       1.713152888248e+05 
       1.097116646175e-02       1.714543816857e+05 
       1.103214478204e-02       1.715884736965e+05 
       1.109318396585e-02       1.717160335956e+05 
       1.115428515021e-02       1.718377064212e+05 
       1.121544950268e-02       1.719542699312e+05 
       1.127667822207e-02       1.720645722697e+05 
       1.133797253921e-02       1.721691691261e+05 
       1.139933371771e-02       1.722682685300e+05 
       1.146076305480e-02       1.723622737719e+05 
       1.152226188215e-02       1.724495431044e+05 
       1.158383156674e-02       1.725314826281e+05 
       1.164547351177e-02       1.726090190327e+05 
       1.170718915757e-02       1.726800548191e+05 
       1.176897998258e-02       1.727466936137e+05 
       1.183084750435e-02       1.728067916227e+05 
       1.189279328057e-02       1.728622062295e+05 
       1.195481891012e-02       1.729122472380e+05 
       1.201692603422e-02       1.729575193809e+05 
       1.207911633755e-02       1.729965541104e+05 
       1.214139154944e-02       1.730310999678e+05 
       1.220375344512e-02       1.730604351788e+05 
       1.226620384700e-02       1.730845528209e+05 
       1.232874462595e-02       1.731039653375e+05 
       1.239137770275e-02       1.731185366584e+05 
       1.245410504945e-02       1.731278400814e+05 
       1.251692869089e-02       1.731325203878e+05 
       1.257985070619e-02       1.731319533489e+05 
       1.264287323040e-02       1.731271601181e+05 
       1.270599845609e-02       1.731171268062e+05 
       1.276922863510e-02       1.731020509604e+05 
       1.283256608030e-02       1.730841055560e+05 
       1.289601316747e-02       1.730597325716e+05 
       1.295957233717e-02       1.730309405855e+05 
       1.302324609678e-02       1.729979785232e+05 
       1.308703702252e-02       1.729605045814e+05 
       1.315094776168e-02       1.729189063197e+05 
       1.321498103476e-02       1.728719596717e+05 
       1.327913963788e-02       1.728208682465e+05 
       1.334342644519e-02       1.727658081133e+05 
       1.340784441134e-02       1.727067081055e+05 
       1.347239657415e-02       1.726424963417e+05 
       1.353708605735e-02       1.725739090290e+05 
       1.360191607338e-02       1.725021296929e+05 
       1.366688992640e-02       1.724249547674e+05 
       1.373201101536e-02       1.723441533744e+05 
       1.379728283722e-02       1.722597405880e+05 
       1.386270899030e-02       1.721703804714e+05 
       1.392829317783e-02       1.720775287613e+05 
       1.399403921154e-02       1.719800673854e+05 
       1.405995101554e-02       1.718798011696e+05 
       1.412603263027e-02       1.717748622177e+05 
       1.419228821669e-02       1.716657966041e+05 
       1.425872206060e-02       1.715527276975e+05 
       1.432533857722e-02       1.714364987221e+05 
       1.439214231598e-02       1.713156053587e+05 
       1.445913796541e-02       1.711924621881e+05 
       1.452633035846e-02       1.710640844213e+05 
       1.459372447788e-02       1.709324893834e+05 
       1.466132546199e-02       1.707968005204e+05 
       1.472913861065e-02       1.706583215374e+05 
       1.479716939156e-02       1.705149907484e+05 
       1.486542344684e-02       1.703689363567e+05 
       1.493390659997e-02       1.702185979946e+05 
       1.500262486303e-02       1.700651906195e+05 
       1.507158444435e-02       1.699080397961e+05 
       1.514079175654e-02       1.697474595995e+05 
       1.521025342490e-02       1.695834416831e+05 
       1.527997629631e-02       1.694157351113e+05 
       1.534996744856e-02       1.692448816060e+05 
       1.542023420017e-02       1.690700818737e+05 
       1.549078412079e-02       1.688921212624e+05 
       1.556162504208e-02       1.687105173339e+05 
       1.563276506926e-02       1.685257430487e+05 
       1.570421259325e-02       1.683376601252e+05 
       1.577597630350e-02       1.681459826105e+05 
       1.584806520158e-02       1.679510025342e+05 
       1.592048861552e-02       1.677527373947e+05 
       1.599325621495e-02       1.675510659881e+05 
       1.606637802716e-02       1.673460404159e+05 
       1.613986445417e-02       1.671378887825e+05 
       1.621372629067e-02       1.669263070839e+05 
       1.628797474320e-02       1.667114343303e+05 
       1.636262145040e-02       1.664932880505e+05 
       1.643767850462e-02       1.662718433813e+05 
       1.651315847473e-02       1.660474542407e+05 
       1.658907443059e-02       1.658190226869e+05 
       1.666543996888e-02       1.655876271407e+05 
       1.674226924078e-02       1.653532011236e+05 
       1.681957698138e-02       1.651149473234e+05 
       1.689737854113e-02       1.648742335479e+05 
       1.697568991932e-02       1.646292409447e+05 
       1.705452779996e-02       1.643819524948e+05 
       1.713390959009e-02       1.641300507440e+05 
       1.721385346086e-02       1.638758024515e+05 
       1.729437839144e-02       1.636179543309e+05 
       1.737550421621e-02       1.633571993242e+05 
       1.745725167536e-02       1.630918008253e+05 
       1.753964246931e-02       1.628238257873e+05 
       1.762269931719e-02       1.625524971860e+05 
       1.770644601984e-02       1.622775769224e+05 
       1.779090752771e-02       1.619986121776e+05 
       1.787611001414e-02       1.617167882079e+05 
       1.796208095447e-02       1.614311580957e+05 
       1.804884921166e-02       1.611422333833e+05 
       1.813644512896e-02       1.608486821250e+05 
       1.822490063036e-02       1.605521236270e+05 
       1.831424932968e-02       1.602521408770e+05 
       1.840452664903e-02       1.599475174627e+05 
       1.849576994788e-02       1.596392812025e+05 
       1.858801866354e-02       1.593274215632e+05 
       1.868131446464e-02       1.590114653122e+05 
       1.877570141872e-02       1.586913417890e+05 
       1.887122617579e-02       1.583665798839e+05 
       1.896793816947e-02       1.580379221186e+05 
       1.906588983793e-02       1.577044621012e+05 
       1.916513686679e-02       1.573676357685e+05 
       1.926573845684e-02       1.570254896764e+05 
       1.936775761943e-02       1.566784806824e+05 
