# dimensionless total [l(l+1)/2pi] C_l's
# for l=2 to 3000, i.e. number of multipoles equal to 2999
#
# -> if you prefer output in CAMB/HealPix/LensPix units/order, set 'format' to 'camb' in input file
# -> if you don't want to see such a header, set 'headers' to 'no' in input file
# -> for CMB lensing (phi), these are C_l^phi-phi for the lensing potential.
#    Remember the conversion factors:
#    C_l^dd (deflection) = l(l+1) C_l^phi-phi
#    C_l^gg (shear/convergence) = 1/4 (l(l+1))^2 C_l^phi-phi
#
# 1:l     2:TT                     3:EE                     4:TE                     5:BB                     6:phiphi                 7:TPhi                   8:Ephi               
    2       1.381699796412e-10       4.168374829410e-15       3.512816250424e-13       0.000000000000e+00       8.182355369639e-09       4.536999403494e-10      -1.840773600000e-12 
    3       1.306663951162e-10       5.340883497142e-15       3.950253167772e-13       0.000000000000e+00       5.070512900476e-09       3.219360658688e-10      -1.393056093209e-12 
    4       1.236003454770e-10       4.616445631391e-15       3.693299108317e-13       0.000000000000e+00       3.530691585477e-09       2.437918327569e-10      -9.113773569088e-13 
    5       1.183102784978e-10       3.077677240498e-15       3.144834350046e-13       0.000000000000e+00       2.635133100924e-09       1.925628656070e-10      -5.061537792336e-13 
    6       1.146825968375e-10       1.719946993238e-15       2.532641016727e-13       0.000000000000e+00       2.057889553707e-09       1.566732484575e-10      -2.077318216418e-13 
    7       1.123183075379e-10       9.292474621748e-16       1.988587492844e-13       0.000000000000e+00       1.660697439033e-09       1.303456180218e-10      -1.755438784761e-14 
    8       1.109382744343e-10       5.997730680719e-16       1.570263841527e-13       0.000000000000e+00       1.373262089514e-09       1.103921025011e-10       7.935583930936e-14 
    9       1.102939790999e-10       4.814402026711e-16       1.290356724633e-13       0.000000000000e+00       1.156986144464e-09       9.491642462958e-11       1.063353097601e-13 
   10       1.101550073494e-10       4.099504967291e-16       1.135672886254e-13       0.000000000000e+00       9.894855911260e-10       8.265965038964e-11       8.921047682695e-14 
   11       1.104623270804e-10       3.440263043550e-16       1.079267463454e-13       0.000000000000e+00       8.333815378216e-10       7.302185444917e-11       5.203738035998e-14 
   12       1.110643419871e-10       2.993015501010e-16       1.090979841559e-13       0.000000000000e+00       7.283498599373e-10       6.456764783834e-11       1.235054644878e-14 
   13       1.119109200620e-10       2.867264265265e-16       1.144009007486e-13       0.000000000000e+00       6.421087738914e-10       5.769749974577e-11      -1.789391165725e-14 
   14       1.129544645318e-10       2.983656672166e-16       1.217892938775e-13       0.000000000000e+00       5.703418309950e-10       5.171363314885e-11      -3.444950186027e-14 
   15       1.141823674605e-10       3.225480891316e-16       1.299863992565e-13       0.000000000000e+00       5.099203258615e-10       4.668148530286e-11      -3.749118662243e-14 
   16       1.155190239398e-10       3.567517490782e-16       1.383730976645e-13       0.000000000000e+00       4.585379787123e-10       4.234579837967e-11      -3.092676768076e-14 
   17       1.169920471427e-10       4.064023141760e-16       1.467153655729e-13       0.000000000000e+00       4.144525981402e-10       3.856337230218e-11      -1.992375486463e-14 
   18       1.185382353080e-10       4.769288093426e-16       1.552193688319e-13       0.000000000000e+00       3.761818951343e-10       3.526546383202e-11      -9.394489296730e-15 
   19       1.201688600584e-10       5.687664978332e-16       1.641153181907e-13       0.000000000000e+00       3.431217977892e-10       3.240448930732e-11      -1.986928547003e-15 
   20       1.218767214171e-10       6.800184752168e-16       1.735757914568e-13       0.000000000000e+00       3.139991729020e-10       2.986469270914e-11       5.435419735725e-16 
   21       1.236632819506e-10       8.098698461325e-16       1.835640410970e-13       0.000000000000e+00       2.883580208876e-10       2.759988704266e-11      -1.222197212485e-15 
   22       1.255024116810e-10       9.576003772098e-16       1.938907696190e-13       0.000000000000e+00       2.655865909701e-10       2.555326508091e-11      -5.496994294298e-15 
   23       1.273988592723e-10       1.123562447519e-15       2.041981673839e-13       0.000000000000e+00       2.453728628794e-10       2.371595382033e-11      -1.050639486189e-14 
   24       1.293461555440e-10       1.308256937677e-15       2.140395296333e-13       0.000000000000e+00       2.272505239629e-10       2.207114939851e-11      -1.436908797696e-14 
   25       1.313463967259e-10       1.511779504194e-15       2.231604901528e-13       0.000000000000e+00       2.110070827958e-10       2.059848745788e-11      -1.626958733344e-14 
   26       1.333885441962e-10       1.734316891528e-15       2.313669014775e-13       0.000000000000e+00       1.963491904745e-10       1.926224282765e-11      -1.590265524741e-14 
   27       1.354675467615e-10       1.977788230643e-15       2.385469457124e-13       0.000000000000e+00       1.831014819654e-10       1.804616130757e-11      -1.389694966165e-14 
   28       1.375715833138e-10       2.244640673059e-15       2.446400414700e-13       0.000000000000e+00       1.710360396244e-10       1.693232528880e-11      -1.126462407752e-14 
   29       1.397098330178e-10       2.536320598612e-15       2.496843796214e-13       0.000000000000e+00       1.600915827750e-10       1.591858071236e-11      -8.664772424035e-15 
   30       1.418868102248e-10       2.853958090666e-15       2.537814220803e-13       0.000000000000e+00       1.501509490483e-10       1.499846455185e-11      -6.763009759577e-15 
   31       1.440965494812e-10       3.198629182463e-15       2.570429630888e-13       0.000000000000e+00       1.410117958677e-10       1.415674317892e-11      -6.172120260383e-15 
   32       1.463420101332e-10       3.571284058837e-15       2.594524738620e-13       0.000000000000e+00       1.326271280687e-10       1.338466728199e-11      -6.704896328200e-15 
   33       1.486202621126e-10       3.972780048291e-15       2.609521806449e-13       0.000000000000e+00       1.249378127466e-10       1.266867630542e-11      -7.828025328743e-15 
   34       1.509214784549e-10       4.403930658575e-15       2.614635561747e-13       0.000000000000e+00       1.178364409324e-10       1.199190723130e-11      -8.949382486835e-15 
   35       1.532478739929e-10       4.865637626141e-15       2.608367433962e-13       0.000000000000e+00       1.112867999906e-10       1.135634728770e-11      -9.790901830794e-15 
   36       1.555996606723e-10       5.358797256358e-15       2.588803599925e-13       0.000000000000e+00       1.052364860106e-10       1.076767794683e-11      -1.013774629389e-14 
   37       1.579727870042e-10       5.884244556152e-15       2.554149760385e-13       0.000000000000e+00       9.960692182793e-11       1.022863172277e-11      -9.818449561945e-15 
   38       1.603713096384e-10       6.442693271505e-15       2.504183710377e-13       0.000000000000e+00       9.438365531757e-11       9.737183671687e-12      -8.981542328793e-15 
   39       1.627979637304e-10       7.034768281530e-15       2.439285775473e-13       0.000000000000e+00       8.955019944377e-11       9.287235615012e-12      -7.914045753994e-15 
   40       1.652501244717e-10       7.661015153927e-15       2.360068211293e-13       0.000000000000e+00       8.506056246334e-11       8.868683943695e-12      -6.973255392852e-15 
   41       1.677225798926e-10       8.321960428952e-15       2.267147588780e-13       0.000000000000e+00       8.085529001877e-11       8.470500324344e-12      -6.493363602522e-15 
   42       1.702183002816e-10       9.018328250390e-15       2.160338592086e-13       0.000000000000e+00       7.692206053646e-11       8.091961156356e-12      -6.457859287097e-15 
   43       1.727402185535e-10       9.750885729371e-15       2.039221750630e-13       0.000000000000e+00       7.325048276179e-11       7.734526715162e-12      -6.728121104479e-15 
   44       1.752878598776e-10       1.052038311920e-14       1.903360307674e-13       0.000000000000e+00       6.981391104178e-11       7.398661812086e-12      -7.129974773861e-15 
   45       1.778589314226e-10       1.132750108348e-14       1.752313804502e-13       0.000000000000e+00       6.657897474894e-11       7.084006664122e-12      -7.492344894708e-15 
   46       1.804554567408e-10       1.217267509002e-14       1.585689365925e-13       0.000000000000e+00       6.354061377529e-11       6.790164358698e-12      -7.782171133602e-15 
   47       1.830788990011e-10       1.305621751518e-14       1.403101639708e-13       0.000000000000e+00       6.069531568480e-11       6.515994378076e-12      -8.006086666650e-15 
   48       1.857281698260e-10       1.397836172961e-14       1.204156674327e-13       0.000000000000e+00       5.803054786036e-11       6.259297628702e-12      -8.173219362434e-15 
   49       1.883994015528e-10       1.493925850596e-14       9.884504257162e-14       0.000000000000e+00       5.552408659186e-11       6.016740723564e-12      -8.295345750849e-15 
   50       1.910881281443e-10       1.593901632797e-14       7.555915384311e-14       0.000000000000e+00       5.315071554734e-11       5.784808821469e-12      -8.387145731935e-15 
   51       1.937970541660e-10       1.697784355043e-14       5.052804435086e-14       0.000000000000e+00       5.090602121274e-11       5.563144718358e-12      -8.466691001499e-15 
   52       1.965300009496e-10       1.805593861750e-14       2.372491496382e-14       0.000000000000e+00       4.878789674294e-11       5.351985232000e-12      -8.555355347681e-15 
   53       1.992895705788e-10       1.917344804384e-14      -4.876149736426e-15       0.000000000000e+00       4.678942067216e-11       5.151185194547e-12      -8.677880442666e-15 
   54       2.020770314982e-10       2.033046488831e-14      -3.530021654907e-14       0.000000000000e+00       4.489853279664e-11       4.960190137564e-12      -8.862534552231e-15 
   55       2.048928367497e-10       2.152703210576e-14      -6.756767887399e-14       0.000000000000e+00       4.310171644015e-11       4.778283942570e-12      -9.131877402170e-15 
   56       2.077385914974e-10       2.276315707405e-14      -1.016815893127e-13       0.000000000000e+00       4.139685897885e-11       4.605466412508e-12      -9.472004604142e-15 
   57       2.106153739144e-10       2.403879800236e-14      -1.376372416825e-13       0.000000000000e+00       3.978301842983e-11       4.441745863572e-12      -9.855940877171e-15 
   58       2.135230575907e-10       2.535385806213e-14      -1.754256423991e-13       0.000000000000e+00       3.825653261217e-11       4.286867019532e-12      -1.025216171752e-14 
   59       2.164602217909e-10       2.670818405075e-14      -2.150333951861e-13       0.000000000000e+00       3.681085112240e-11       4.140294409726e-12      -1.062438611434e-14 
   60       2.194240617115e-10       2.810156505531e-14      -2.564425857831e-13       0.000000000000e+00       3.543636730992e-11       4.001195767031e-12      -1.093136926535e-14 
   61       2.224116718469e-10       2.953367993176e-14      -2.996343326578e-13       0.000000000000e+00       3.412308734249e-11       3.868675314313e-12      -1.113644551777e-14 
   62       2.254244357304e-10       3.100392898948e-14      -3.446006312996e-13       0.000000000000e+00       3.286971760651e-11       3.742572372290e-12      -1.123912919605e-14 
   63       2.284644667526e-10       3.251156198330e-14      -3.913349760177e-13       0.000000000000e+00       3.167632819162e-11       3.622813362990e-12      -1.125027137016e-14 
   64       2.315332767389e-10       3.405572306265e-14      -4.398289295434e-13       0.000000000000e+00       3.054161933258e-11       3.509169237731e-12      -1.118303560384e-14 
   65       2.346317297753e-10       3.563544781123e-14      -4.900721240580e-13       0.000000000000e+00       2.946284340338e-11       3.401246803879e-12      -1.105300003759e-14 
   66       2.377599960331e-10       3.724966028668e-14      -5.420522622217e-13       0.000000000000e+00       2.843572691144e-11       3.298480051598e-12      -1.087825947155e-14 
   67       2.409175055943e-10       3.889717006027e-14      -5.957551182011e-13       0.000000000000e+00       2.745439249171e-11       3.200121480604e-12      -1.067952744845e-14 
   68       2.441035430656e-10       4.057678440768e-14      -6.511641791537e-13       0.000000000000e+00       2.651292928115e-11       3.105436322047e-12      -1.047617088748e-14 
   69       2.473192745450e-10       4.228767789631e-14      -7.082594830261e-13       0.000000000000e+00       2.561064790792e-11       3.014350290677e-12      -1.027315277307e-14 
   70       2.505660503083e-10       4.402909271213e-14      -7.670185460280e-13       0.000000000000e+00       2.474775506060e-11       2.926918106378e-12      -1.007161494107e-14 
   71       2.538447711084e-10       4.580023011966e-14      -8.274166933190e-13       0.000000000000e+00       2.392376411579e-11       2.843128790475e-12      -9.872709523539e-15 
   72       2.571558583883e-10       4.760025044669e-14      -8.894270508417e-13       0.000000000000e+00       2.313745929031e-11       2.762902181625e-12      -9.677597004873e-15 
   73       2.604992244951e-10       4.942827306903e-14      -9.530205371538e-13       0.000000000000e+00       2.238685979344e-11       2.686085451703e-12      -9.487444277888e-15 
   74       2.638742428935e-10       5.128337639520e-14      -1.018165855261e-12       0.000000000000e+00       2.166918397910e-11       2.612449621688e-12      -9.303422699920e-15 
   75       2.672797183792e-10       5.316459785118e-14      -1.084829484450e-12       0.000000000000e+00       2.098081349810e-11       2.541686077552e-12      -9.126706148934e-15 
   76       2.707144762445e-10       5.507088168931e-14      -1.152976064750e-12       0.000000000000e+00       2.031819178482e-11       2.473485806279e-12      -8.958429676658e-15 
   77       2.741793196507e-10       5.700091146132e-14      -1.222569649309e-12       0.000000000000e+00       1.968078791484e-11       2.407801486929e-12      -8.799561060435e-15 
   78       2.776753767341e-10       5.895324682624e-14      -1.293572666616e-12       0.000000000000e+00       1.906861060392e-11       2.344627085263e-12      -8.651002187739e-15 
   79       2.812034965026e-10       6.092637194846e-14      -1.365945548021e-12       0.000000000000e+00       1.848130540255e-11       2.283917614619e-12      -8.513623673802e-15 
   80       2.847642317407e-10       6.291869441256e-14      -1.439646727615e-12       0.000000000000e+00       1.791813800744e-11       2.225587348044e-12      -8.388262109727e-15 
   81       2.883578219159e-10       6.492854413808e-14      -1.514632642119e-12       0.000000000000e+00       1.737797757303e-11       2.169508030422e-12      -8.275717310602e-15 
   82       2.919841760837e-10       6.695417229439e-14      -1.590857730760e-12       0.000000000000e+00       1.685928002298e-11       2.115507090606e-12      -8.176749563604e-15 
   83       2.956428557940e-10       6.899375021547e-14      -1.668274435163e-12       0.000000000000e+00       1.636007136169e-11       2.063365853547e-12      -8.092076876117e-15 
   84       2.993333608543e-10       7.104543493363e-14      -1.746833546442e-12       0.000000000000e+00       1.587842755831e-11       2.012873839117e-12      -8.021999269703e-15 
   85       3.030560784970e-10       7.310758064029e-14      -1.826485312850e-12       0.000000000000e+00       1.541404216099e-11       1.964005917480e-12      -7.965206126918e-15 
   86       3.068114609541e-10       7.517856045428e-14      -1.907178516394e-12       0.000000000000e+00       1.496688917059e-11       1.916771380910e-12      -7.919765163131e-15 
   87       3.105997247623e-10       7.725670295374e-14      -1.988860147590e-12       0.000000000000e+00       1.453674135453e-11       1.871159635521e-12      -7.883468914315e-15 
   88       3.144208387588e-10       7.934029221066e-14      -2.071475411175e-12       0.000000000000e+00       1.412316190398e-11       1.827139356041e-12      -7.853825717025e-15 
   89       3.182745120771e-10       8.142756782523e-14      -2.154967731833e-12       0.000000000000e+00       1.372549609114e-11       1.784657640565e-12      -7.828050688371e-15 
   90       3.221601821426e-10       8.351672496043e-14      -2.239278759911e-12       0.000000000000e+00       1.334286292650e-11       1.743639165327e-12      -7.803056705993e-15 
   91       3.260770026686e-10       8.560591437639e-14      -2.324348377139e-12       0.000000000000e+00       1.297414681608e-11       1.703985339460e-12      -7.775445388031e-15 
   92       3.300238316519e-10       8.769324246490e-14      -2.410114702350e-12       0.000000000000e+00       1.261798921874e-11       1.665573459763e-12      -7.741498073106e-15 
   93       3.339995798787e-10       8.977679973861e-14      -2.496514976985e-12       0.000000000000e+00       1.227311104512e-11       1.628287676647e-12      -7.698028749071e-15 
   94       3.380043424737e-10       9.185475112506e-14      -2.583488361541e-12       0.000000000000e+00       1.193935344203e-11       1.592119055349e-12      -7.645109171589e-15 
   95       3.420384161337e-10       9.392525937978e-14      -2.670973572239e-12       0.000000000000e+00       1.161677884556e-11       1.557079071202e-12      -7.583738833554e-15 
   96       3.461019468196e-10       9.598645826096e-14      -2.758908056275e-12       0.000000000000e+00       1.130535043516e-11       1.523168736271e-12      -7.515022309584e-15 
   97       3.501949227012e-10       9.803645295447e-14      -2.847228009608e-12       0.000000000000e+00       1.100492833085e-11       1.490378190779e-12      -7.440172067829e-15 
   98       3.543171671019e-10       1.000733204990e-13      -2.935868394762e-12       0.000000000000e+00       1.071526579055e-11       1.458686294542e-12      -7.360511281768e-15 
   99       3.584683314425e-10       1.020951102109e-13      -3.024762958621e-12       0.000000000000e+00       1.043600540740e-11       1.428060218397e-12      -7.277476642020e-15 
  100       3.626478881860e-10       1.040998441097e-13      -3.113844250224e-12       0.000000000000e+00       1.016667530701e-11       1.398455035636e-12      -7.192621168141e-15 
  101       3.668551237821e-10       1.060855173426e-13      -3.203043638559e-12       0.000000000000e+00       9.906685344771e-12       1.369813313435e-12      -7.107617020433e-15 
  102       3.710891316114e-10       1.080500986098e-13      -3.292291330365e-12       0.000000000000e+00       9.655323303183e-12       1.342064704284e-12      -7.024258311746e-15 
  103       3.753488049300e-10       1.099915305897e-13      -3.381516387922e-12       0.000000000000e+00       9.411751089103e-12       1.315125537419e-12      -6.944463919279e-15 
  104       3.796330703143e-10       1.119077812578e-13      -3.470647299711e-12       0.000000000000e+00       9.175194749766e-12       1.288918057099e-12      -6.869866003254e-15 
  105       3.839416391065e-10       1.137970048241e-13      -3.559613741844e-12       0.000000000000e+00       8.945551944427e-12       1.263431977166e-12      -6.800506201901e-15 
  106       3.882743447976e-10       1.156574034300e-13      -3.648345088865e-12       0.000000000000e+00       8.722859825966e-12       1.238670518624e-12      -6.735967733510e-15 
  107       3.926309072317e-10       1.174871791674e-13      -3.736769905714e-12       0.000000000000e+00       8.507106897431e-12       1.214631314985e-12      -6.675772241981e-15 
