# dimensionless total lensed [l(l+1)/2pi] C_l's
# for l=2 to 2500, i.e. number of multipoles equal to 2499
#
# -> if you prefer output in CAMB/HealPix/LensPix units/order, set 'format' to 'camb' in input file
# -> if you don't want to see such a header, set 'headers' to 'no' in input file
# -> for CMB lensing (phi), these are C_l^phi-phi for the lensing potential.
#    Remember the conversion factors:
#    C_l^dd (deflection) = l(l+1) C_l^phi-phi
#    C_l^gg (shear/convergence) = 1/4 (l(l+1))^2 C_l^phi-phi
#
# 1:l     2:TT                     3:EE                     4:TE                     5:BB                     6:phiphi                 7:TPhi                   8:Ephi               
    2       1.381640232797e-10       4.152927174450e-15       3.510002382055e-13       2.312764185420e-19       8.239868449469e-09       4.533136774808e-10      -1.835439925553e-12 
    3       1.306720257019e-10       5.316218112460e-15       3.941489894286e-13       4.626477175785e-19       5.061264059790e-09       3.217411547231e-10      -1.389506002496e-12 
    4       1.236088389882e-10       4.594392661425e-15       3.684736540308e-13       7.712884798458e-19       3.523108044757e-09       2.437447349413e-10      -9.089270745827e-13 
    5       1.183221610061e-10       3.063408559101e-15       3.137562474031e-13       1.157319993413e-18       2.632324410396e-09       1.925608014336e-10      -5.046521555075e-13 
    6       1.146977688407e-10       1.713046171005e-15       2.527000157663e-13       1.620889503715e-18       2.057795607605e-09       1.566818746193e-10      -2.070566487450e-13 
    7       1.123362355294e-10       9.271299409270e-16       1.984670800897e-13       2.162167499390e-18       1.661194299775e-09       1.303509110495e-10      -1.741564645080e-14 
    8       1.109586216650e-10       6.000729307986e-16       1.567821846521e-13       2.781344641799e-18       1.373380601990e-09       1.103896443440e-10       7.921342126504e-14 
    9       1.103161958903e-10       4.830627339278e-16       1.288965914395e-13       3.478628428815e-18       1.156457883434e-09       9.490338002046e-11       1.060979869222e-13 
   10       1.101792802885e-10       4.127107732188e-16       1.134851511105e-13       4.254239689876e-18       9.882955874220e-10       8.263725073280e-11       8.899440956132e-14 
   11       1.104887069645e-10       3.479913826584e-16       1.078939193908e-13       5.108409012292e-18       8.333857585211e-10       7.300110343592e-11       5.190438998255e-14 
   12       1.110931081852e-10       3.044700060693e-16       1.090902961580e-13       6.041373198382e-18       7.283537143566e-10       6.455215408827e-11       1.232459640229e-14 
   13       1.119421992640e-10       2.930911117057e-16       1.143922801562e-13       7.053371849079e-18       6.421120926212e-10       5.769185379788e-11      -1.781622003904e-14 
   14       1.129887420071e-10       3.059908135521e-16       1.217956053270e-13       8.144644162571e-18       5.703448251098e-10       5.171760095874e-11      -3.429236388086e-14 
   15       1.142190980565e-10       3.314996122569e-16       1.300303512375e-13       9.315426026424e-18       5.099230797133e-10       4.669158351984e-11      -3.729700003405e-14 
   16       1.155581860552e-10       3.671259554539e-16       1.384052381129e-13       1.056594746902e-17       4.585406060871e-10       4.235725811013e-11      -3.075523992442e-14 
   17       1.170337405746e-10       4.183600926791e-16       1.467402890833e-13       1.189643052143e-17       4.144550116945e-10       3.857253825992e-11      -1.983781644277e-14 
   18       1.185824766569e-10       4.905450996915e-16       1.552732079331e-13       1.330708734669e-17       3.761845052120e-10       3.527092170236e-11      -9.427864474374e-15 
   19       1.202157332980e-10       5.840027828472e-16       1.642034180788e-13       1.479811990072e-17       3.431238695720e-10       3.240629621929e-11      -2.117633047688e-15 
   20       1.219264015771e-10       6.967658901061e-16       1.736601312805e-13       1.636971718994e-17       3.140009921721e-10       2.986416895689e-11       3.989811892352e-16 
   21       1.237158922502e-10       8.282224528376e-16       1.836205587633e-13       1.802205771607e-17       2.883598569747e-10       2.759855888517e-11      -1.301787493095e-15 
   22       1.255579865591e-10       9.779157792139e-16       1.939312358896e-13       1.975530647068e-17       2.655883601784e-10       2.555237848203e-11      -5.470657134827e-15 
   23       1.274575090395e-10       1.146063922912e-15       2.042520466500e-13       2.156961879218e-17       2.453744887549e-10       2.371625616976e-11      -1.038824426525e-14 
   24       1.294081105102e-10       1.332913492202e-15       2.141401695310e-13       2.346513730781e-17       2.272520476310e-10       2.207273926926e-11      -1.422824252127e-14 
   25       1.314118864218e-10       1.538563452437e-15       2.233015457354e-13       2.544199744614e-17       2.110085460886e-10       2.060103547041e-11      -1.615694483253e-14 
   26       1.334577321894e-10       1.763291238627e-15       2.314938384654e-13       2.750032375139e-17       1.963505990790e-10       1.926507261702e-11      -1.582674369720e-14 
   27       1.355404577562e-10       2.009067669333e-15       2.386190075805e-13       2.964023517681e-17       1.831028347235e-10       1.804853553178e-11      -1.385403566647e-14 
   28       1.376480945419e-10       2.278376200952e-15       2.446523093389e-13       3.186184256431e-17       1.710373371891e-10       1.693357532893e-11      -1.124788092093e-14 
   29       1.397898479122e-10       2.572656468782e-15       2.496564257575e-13       3.416525726452e-17       1.600928273405e-10       1.591820428402e-11      -8.666673229170e-15 
   30       1.419703302604e-10       2.893013322385e-15       2.537577574928e-13       3.655058394164e-17       1.501521441473e-10       1.499620989704e-11      -6.776370410945e-15 
   31       1.441836863495e-10       3.240497250251e-15       2.570846659691e-13       3.901792053785e-17       1.410129458309e-10       1.415266741818e-11      -6.190633144652e-15 
   32       1.464329341697e-10       3.616061419295e-15       2.595801405824e-13       4.156736912047e-17       1.326282362442e-10       1.337911608964e-11      -6.723788445970e-15 
   33       1.487151917643e-10       4.020576730908e-15       2.611178134068e-13       4.419902888707e-17       1.249388803775e-10       1.266232039862e-11      -7.844730081015e-15 
   34       1.510206639945e-10       4.454863944499e-15       2.615586279187e-13       4.691299484815e-17       1.178374671838e-10       1.198568856605e-11      -8.963821482651e-15 
   35       1.533515032541e-10       4.919791983226e-15       2.607864562051e-13       4.970936315135e-17       1.112877851231e-10       1.135102760613e-11      -9.804333632703e-15 
   36       1.557078130833e-10       5.416205426764e-15       2.586829269883e-13       5.258822772995e-17       1.052374324917e-10       1.076363808673e-11      -1.015258673385e-14 
   37       1.580854348527e-10       5.944894340530e-15       2.551393211453e-13       5.554967847001e-17       9.960783410115e-11       1.022585827588e-11      -9.838073736335e-15 
   38       1.604884176948e-10       6.506594417108e-15       2.501327700805e-13       5.859379938045e-17       9.438453776499e-11       9.735564592852e-12      -9.008683422946e-15 
   39       1.629195223792e-10       7.101979579327e-15       2.436757472907e-13       6.172066994136e-17       8.955105553061e-11       9.286644909287e-12      -7.950117319612e-15 
   40       1.653761571175e-10       7.731656447478e-15       2.357968929268e-13       6.493036566638e-17       8.506139432610e-11       8.868983989296e-12      -7.018021733696e-15 
   41       1.678531407151e-10       8.396213068530e-15       2.265264322269e-13       6.822295526533e-17       8.085609839861e-11       8.471544622516e-12      -6.544931246302e-15 
   42       1.703534381232e-10       9.096394480322e-15       2.158444285908e-13       7.159849088827e-17       7.692284595985e-11       8.093597858288e-12      -6.513809020561e-15 
   43       1.728799644445e-10       9.832977088891e-15       2.037172908348e-13       7.505701479866e-17       7.325124582662e-11       7.736602094430e-12      -6.785834612511e-15 
   44       1.754322235131e-10       1.060671996031e-14       1.901117428539e-13       7.859856185096e-17       6.981465235605e-11       7.401023894975e-12      -7.186652824900e-15 
   45       1.780079048935e-10       1.141830596249e-14       1.749933277519e-13       8.222315579919e-17       6.657969490308e-11       7.086506522143e-12      -7.545220231308e-15 
   46       1.806090431392e-10       1.226814576287e-14       1.583216623962e-13       8.593079725056e-17       6.354131344095e-11       6.792648871940e-12      -7.829369677180e-15 
   47       1.832371232083e-10       1.315651411091e-14       1.400535653275e-13       8.972147186211e-17       6.069599561530e-11       6.518305470350e-12      -8.047037992680e-15 
   48       1.858910826717e-10       1.408359904153e-14       1.201441213631e-13       9.359515323240e-17       5.803120885175e-11       6.261274043289e-12      -8.208904463643e-15 
   49       1.885670841819e-10       1.504949786323e-14       9.854648528964e-14       9.755180255130e-17       5.552472944058e-11       6.018219937185e-12      -8.328558099147e-15 
   50       1.912606851528e-10       1.605427248579e-14       7.521654429975e-14       1.015913682432e-16       5.315134102671e-11       5.785638759655e-12      -8.422071294040e-15 
   51       1.939745689656e-10       1.709814241506e-14       5.012885271186e-14       1.057137855948e-16       5.090663012004e-11       5.563227690773e-12      -8.506196327763e-15 
   52       1.967125190100e-10       1.818133720982e-14       2.326468322166e-14       1.099189764208e-16       4.878848988918e-11       5.351298632481e-12      -8.599968457772e-15 
   53       1.994770928903e-10       1.930404053066e-14      -5.392422233848e-15       1.142068487197e-16       4.678999884893e-11       5.149793881238e-12      -8.725392766107e-15 
   54       2.022695077037e-10       2.046638892063e-14      -3.585662013631e-14       1.185772963235e-16       4.489909674055e-11       4.958259406026e-12      -8.907583492610e-15 
   55       2.050901728822e-10       2.166846225140e-14      -6.813903482853e-14       1.230302068235e-16       4.310226681442e-11       4.776067064145e-12      -9.166493624235e-15 
   56       2.079407065409e-10       2.291025507570e-14      -1.022454284042e-13       1.275654884581e-16       4.139739641653e-11       4.603207110882e-12      -9.489378525605e-15 
   57       2.108222190913e-10       2.419169602244e-14      -1.381778953225e-13       1.321830492909e-16       3.978354352651e-11       4.439645760580e-12      -9.851735736202e-15 
   58       2.137346220215e-10       2.551265399738e-14      -1.759354516636e-13       1.368827894916e-16       3.825704589908e-11       4.285076845336e-12      -1.022493116001e-14 
   59       2.166765384048e-10       2.687293663899e-14      -2.155139755848e-13       1.416646013078e-16       3.681135303780e-11       4.138904791876e-12      -1.057601074635e-14 
   60       2.196452134091e-10       2.827228877449e-14      -2.569061477775e-13       1.465283690373e-16       3.543685816895e-11       4.000227598432e-12      -1.086751217079e-14 
   61       2.226377846954e-10       2.971034936443e-14      -3.001023451211e-13       1.514739843731e-16       3.412356733895e-11       3.868084803324e-12      -1.106605175735e-14 
   62       2.256556292917e-10       3.118651453639e-14      -3.450936907492e-13       1.565013965278e-16       3.287018692264e-11       3.742304942980e-12      -1.117076358639e-14 
   63       2.287008380582e-10       3.270004092790e-14      -3.918695860589e-13       1.616105733619e-16       3.167678702139e-11       3.622818972823e-12      -1.119093872508e-14 
   64       2.317748964702e-10       3.425008168041e-14      -4.404167892064e-13       1.668014874534e-16       3.054206787295e-11       3.509403616527e-12      -1.113790160276e-14 
   65       2.348786382749e-10       3.583568357811e-14      -4.907193858089e-13       1.720741165582e-16       2.946328184511e-11       3.401672750887e-12      -1.102510012349e-14 
   66       2.380121991484e-10       3.745578418678e-14      -5.427587596448e-13       1.774284440693e-16       2.843615542930e-11       3.299068790675e-12      -1.086819577872e-14 
   67       2.411749703531e-10       3.910920899264e-14      -5.965135633550e-13       1.828644594771e-16       2.745481123418e-11       3.200854073504e-12      -1.068515375995e-14 
   68       2.443662006792e-10       4.079478044835e-14      -6.519609580671e-13       1.883821670510e-16       2.651333837266e-11       3.106302117552e-12      -1.049289763774e-14 
   69       2.475870474937e-10       4.251167716473e-14      -7.090806894367e-13       1.939816129008e-16       2.561104749311e-11       3.015335653904e-12      -1.029628483649e-14 
   70       2.508388599451e-10       4.425914269524e-14      -7.678517886798e-13       1.996628642499e-16       2.474814531416e-11       2.928002993759e-12      -1.009704891909e-14 
   71       2.541225382214e-10       4.603638006933e-14      -8.282513798239e-13       2.054260023563e-16       2.392414523971e-11       2.844286153901e-12      -9.897039579254e-15 
   72       2.574385037874e-10       4.784255179338e-14      -8.902546828622e-13       2.112711231825e-16       2.313783151092e-11       2.764097353403e-12      -9.698224891317e-15 
   73       2.607866696218e-10       4.967677985162e-14      -9.538350169077e-13       2.171983380656e-16       2.238722335824e-11       2.687275510327e-12      -9.502693560159e-15 
   74       2.641664104549e-10       5.153814570698e-14      -1.018963803348e-12       2.232077743873e-16       2.166953915342e-11       2.613582738421e-12      -9.312657171071e-15 
   75       2.675765330053e-10       5.342569030209e-14      -1.085610568997e-12       2.292995762441e-16       2.098116056148e-11       2.542700843822e-12      -9.130452439639e-15 
   76       2.710158648882e-10       5.533836093413e-14      -1.153742636095e-12       2.354738980869e-16       2.031853102515e-11       2.474314651229e-12      -8.958244436300e-15 
   77       2.744852111108e-10       5.727484069344e-14      -1.223324120047e-12       2.417308828211e-16       1.968111961550e-11       2.408387268910e-12      -8.797068807558e-15 
   78       2.779857019374e-10       5.923368777937e-14      -1.294316753798e-12       2.480706809120e-16       1.906893503625e-11       2.344928888016e-12      -8.647618175316e-15 
   79       2.815181890707e-10       6.121338479618e-14      -1.366680181563e-12       2.544934575776e-16       1.848162282003e-11       2.283912711270e-12      -8.510521848732e-15 
   80       2.850832285744e-10       6.321233766455e-14      -1.440371955559e-12       2.609993933150e-16       1.791844863966e-11       2.225273230168e-12      -8.386341942344e-15 
   81       2.886810637975e-10       6.522887453312e-14      -1.515347532737e-12       2.675886844260e-16       1.737828161939e-11       2.168904502194e-12      -8.275569494191e-15 
   82       2.923116082978e-10       6.726124468999e-14      -1.591560271518e-12       2.742615435429e-16       1.685957764615e-11       2.114658428024e-12      -8.178620583937e-15 
   83       2.959744287653e-10       6.930761747425e-14      -1.668961428521e-12       2.810182001546e-16       1.636036268081e-11       2.062343028741e-12      -8.095832450996e-15 
   84       2.996690282397e-10       7.136614765862e-14      -1.747500709868e-12       2.878588975317e-16       1.587871265382e-11       2.011769955730e-12      -8.027168561384e-15 
   85       3.033957871146e-10       7.343518643557e-14      -1.827128037250e-12       2.947838817642e-16       1.541432111728e-11       1.962909843629e-12      -7.971286133700e-15 
   86       3.071551475485e-10       7.551310357514e-14      -1.907792070010e-12       3.017934118625e-16       1.496716208667e-11       1.915759672704e-12      -7.926306192739e-15 
   87       3.109473151889e-10       7.759822409202e-14      -1.989439682565e-12       3.088877636545e-16       1.453700834331e-11       1.870294943841e-12      -7.890082232258e-15 
   88       3.147722471430e-10       7.968882827415e-14      -2.072015970459e-12       3.160672302514e-16       1.412342309151e-11       1.826468783199e-12      -7.860191441490e-15 
   89       3.186296399477e-10       8.178315171145e-14      -2.155464256422e-12       3.233321225129e-16       1.372575161581e-11       1.784211046855e-12      -7.833925931642e-15 
   90       3.225189175411e-10       8.387938532450e-14      -2.239726096416e-12       3.306827695124e-16       1.334311293814e-11       1.743427425461e-12      -7.808283962404e-15 
   91       3.264392192322e-10       8.597567539321e-14      -2.324741285692e-12       3.381195190030e-16       1.297439147509e-11       1.703998548883e-12      -7.779961168454e-15 
   92       3.303893876721e-10       8.807012358549e-14      -2.410447864843e-12       3.456427378818e-16       1.261822869507e-11       1.665779090856e-12      -7.745341785963e-15 
   93       3.343683197807e-10       9.016081647116e-14      -2.496782994421e-12       3.532528201626e-16       1.227334551570e-11       1.628633670548e-12      -7.701330517439e-15 
   94       3.383761060316e-10       9.224591907892e-14      -2.583685716124e-12       3.609502112494e-16       1.193958308293e-11       1.592552678600e-12      -7.648010299206e-15 
   95       3.424130410723e-10       9.432359552884e-14      -2.671094620016e-12       3.687353881909e-16       1.161700382855e-11       1.557552296972e-12      -7.586369900987e-15 
   96       3.464792690817e-10       9.639198122854e-14      -2.758947030698e-12       3.766088530602e-16       1.130557092562e-11       1.523638869193e-12      -7.517501632902e-15 
   97       3.505747767233e-10       9.844918330661e-14      -2.847179025287e-12       3.845711335232e-16       1.100514448571e-11       1.490808510112e-12      -7.442604111271e-15 
   98       3.546993860980e-10       1.004932810460e-13      -2.935725451386e-12       3.926227834069e-16       1.071547775611e-11       1.459046715652e-12      -7.362985024431e-15 
   99       3.588527476968e-10       1.025223263175e-13      -3.024519945067e-12       4.007643832682e-16       1.043621331707e-11       1.428327972570e-12      -7.280063898539e-15 
  100       3.630343333537e-10       1.045343440132e-13      -3.113494948839e-12       4.089965409618e-16       1.016687927899e-11       1.398615368201e-12      -7.195374863390e-15 
  101       3.672434291983e-10       1.065273324797e-13      -3.202581729631e-12       4.173198922089e-16       9.906885479678e-12       1.369860200224e-12      -7.110569418219e-15 
  102       3.714791286092e-10       1.084992639518e-13      -3.291710396763e-12       4.257351011656e-16       9.655519681569e-12       1.342001586407e-12      -7.027419197516e-15 
  103       3.757403251659e-10       1.104480849856e-13      -3.380809919922e-12       4.342428609912e-16       9.411943768930e-12       1.314966074365e-12      -6.947818736834e-15 
  104       3.800259451899e-10       1.123717677324e-13      -3.469808702252e-12       4.428438745714e-16       9.175383769153e-12       1.288684731869e-12      -6.873378922960e-15 
  105       3.843356963183e-10       1.142684707131e-13      -3.558636349055e-12       4.515387924971e-16       8.945737341247e-12       1.263147887575e-12      -6.804138841177e-15 
  106       3.886694073842e-10       1.161364006712e-13      -3.647222172640e-12       4.603282677282e-16       8.723041642748e-12       1.238357091863e-12      -6.739684263528e-15 
  107       3.930267934980e-10       1.179737646518e-13      -3.735494682331e-12       4.692129750366e-16       8.507285181096e-12       1.214308100856e-12      -6.679539714291e-15 
