# dimensionless total [l(l+1)/2pi] C_l's
# for l=2 to 3000, i.e. number of multipoles equal to 2999
#
# -> if you prefer output in CAMB/HealPix/LensPix units/order, set 'format' to 'camb' in input file
# -> if you don't want to see such a header, set 'headers' to 'no' in input file
# -> for CMB lensing (phi), these are C_l^phi-phi for the lensing potential.
#    Remember the conversion factors:
#    C_l^dd (deflection) = l(l+1) C_l^phi-phi
#    C_l^gg (shear/convergence) = 1/4 (l(l+1))^2 C_l^phi-phi
#
# 1:l     2:TT                     3:EE                     4:TE                     5:BB                     6:phiphi                 7:TPhi                   8:Ephi               
    2       1.224743834170e-09       6.321984541937e-15       2.195799235954e-12       0.000000000000e+00       8.902921047280e-09       3.405313719390e-11      -2.276575287655e-12 
    3       1.190194020587e-09       8.086679106896e-15       2.400506705329e-12       0.000000000000e+00       5.660412177039e-09       8.586252342514e-11      -1.725660025529e-12 
    4       1.140159296792e-09       6.960153667103e-15       2.240864640389e-12       0.000000000000e+00       4.010213886587e-09       8.948267624605e-11      -1.130406616839e-12 
    5       1.088371782669e-09       4.594531713280e-15       1.902630848937e-12       0.000000000000e+00       3.038630570225e-09       8.189938115419e-11      -6.269581208739e-13 
    6       1.038686594420e-09       2.519117785122e-15       1.499670081429e-12       0.000000000000e+00       2.402927961509e-09       7.235495500789e-11      -2.536776310228e-13 
    7       9.923014648846e-10       1.330592047006e-15       1.105878933085e-12       0.000000000000e+00       1.958284062942e-09       6.318667482412e-11      -1.383147781102e-14 
    8       9.493888727098e-10       8.599290014447e-16       7.622714583709e-13       0.000000000000e+00       1.633764484918e-09       5.510544917636e-11       1.094384886631e-13 
    9       9.097815141898e-10       7.082809159334e-16       4.876046970503e-13       0.000000000000e+00       1.389180996382e-09       4.826721269674e-11       1.436088021896e-13 
   10       8.733440441455e-10       6.135156893571e-16       2.859978963438e-13       0.000000000000e+00       1.199252918693e-09       4.252047119901e-11       1.199150977681e-13 
   11       8.397588481047e-10       5.148084848568e-16       1.523576292442e-13       0.000000000000e+00       9.999259251360e-10       3.648196960650e-11       6.787611783872e-14 
   12       8.087568942816e-10       4.447575184463e-16       7.659741611719e-14       0.000000000000e+00       8.797086032788e-10       3.306664753831e-11       1.136417505910e-14 
   13       7.801641821236e-10       4.223067981828e-16       4.676658311141e-14       0.000000000000e+00       7.809306665786e-10       2.781735200028e-11      -3.480076695183e-14 
   14       7.537993634909e-10       4.255083344077e-16       5.086664003154e-14       0.000000000000e+00       6.979368767753e-10       2.558708962296e-11      -6.197171902890e-14 
   15       7.294693907245e-10       4.217620673127e-16       7.793618544546e-14       0.000000000000e+00       6.278055600289e-10       2.337897092100e-11      -7.000057931340e-14 
   16       7.068847084924e-10       3.995149369855e-16       1.187039185978e-13       0.000000000000e+00       5.682890816406e-10       1.849141867840e-11      -6.404672135341e-14 
   17       6.860330379639e-10       3.717315030589e-16       1.657141865101e-13       0.000000000000e+00       5.165595658151e-10       1.721340095049e-11      -4.793790986316e-14 
   18       6.666996162102e-10       3.603870820499e-16       2.133221994789e-13       0.000000000000e+00       4.714522347717e-10       1.614174376217e-11      -2.946605002549e-14 
   19       6.489682004319e-10       3.741929259076e-16       2.580803793362e-13       0.000000000000e+00       4.324493546419e-10       1.435870297715e-11      -1.314100113013e-14 
   20       6.324664289208e-10       4.153649163401e-16       2.971026865692e-13       0.000000000000e+00       3.979211199132e-10       1.287152925836e-11      -2.026216579010e-15 
   21       6.172369772398e-10       4.790205888303e-16       3.290640836622e-13       0.000000000000e+00       3.673587618146e-10       1.169027677784e-11       3.423638156420e-15 
   22       6.031351597960e-10       5.570299714729e-16       3.535156120428e-13       0.000000000000e+00       3.401183112743e-10       1.049422092683e-11       4.104509820151e-15 
   23       5.901568629273e-10       6.475415701390e-16       3.706047494262e-13       0.000000000000e+00       3.158511447868e-10       9.314071721265e-12       1.571025967616e-15 
   24       5.781283647735e-10       7.504448612838e-16       3.810728769975e-13       0.000000000000e+00       2.940056413990e-10       8.271157999518e-12      -2.155697860117e-15 
   25       5.670370389221e-10       8.657179274473e-16       3.859618034142e-13       0.000000000000e+00       2.743463784491e-10       7.321846977581e-12      -5.903423545431e-15 
   26       5.567650986832e-10       9.933301048231e-16       3.867514002212e-13       0.000000000000e+00       2.565435430716e-10       6.375398701241e-12      -8.788939585305e-15 
   27       5.472535492531e-10       1.133765145733e-15       3.849970270977e-13       0.000000000000e+00       2.403961575365e-10       5.464662062582e-12      -1.074690910235e-14 
   28       5.383699415793e-10       1.287714609478e-15       3.824085353353e-13       0.000000000000e+00       2.256347207869e-10       4.657709095861e-12      -1.201404210391e-14 
   29       5.301438229981e-10       1.456159275354e-15       3.800760537183e-13       0.000000000000e+00       2.121886984549e-10       3.984884793190e-12      -1.282594740971e-14 
   30       5.225396883618e-10       1.640234744646e-15       3.790339297296e-13       0.000000000000e+00       1.999178969967e-10       3.461861651939e-12      -1.348702796313e-14 
   31       5.154233847626e-10       1.840970726866e-15       3.802456454416e-13       0.000000000000e+00       1.885793133821e-10       3.091805916471e-12      -1.428054839444e-14 
   32       5.087975653082e-10       2.058563635885e-15       3.837157096556e-13       0.000000000000e+00       1.781256774527e-10       2.840138195259e-12      -1.504091684665e-14 
   33       5.026320329770e-10       2.292809577382e-15       3.890225990863e-13       0.000000000000e+00       1.684979543912e-10       2.647971589879e-12      -1.541623016599e-14 
   34       4.968353265368e-10       2.543614039358e-15       3.955621942685e-13       0.000000000000e+00       1.595778564082e-10       2.452472529386e-12      -1.506225904818e-14 
   35       4.914075658468e-10       2.812171417862e-15       4.026641975686e-13       0.000000000000e+00       1.513262006672e-10       2.240334966544e-12      -1.395277784303e-14 
   36       4.863272442660e-10       3.100210672676e-15       4.094881752715e-13       0.000000000000e+00       1.436809212557e-10       2.012338506810e-12      -1.217916415116e-14 
   37       4.815360383865e-10       3.409393201078e-15       4.151424159240e-13       0.000000000000e+00       1.365470653488e-10       1.770332164254e-12      -9.897649337701e-15 
   38       4.770488523806e-10       3.740258252606e-15       4.192510204445e-13       0.000000000000e+00       1.299082852101e-10       1.520939703881e-12      -7.418441848949e-15 
   39       4.728713031420e-10       4.092926930074e-15       4.215631033144e-13       0.000000000000e+00       1.237449978323e-10       1.273156233166e-12      -5.153561358078e-15 
   40       4.689648228938e-10       4.467371314353e-15       4.217988676375e-13       0.000000000000e+00       1.180003532352e-10       1.037455410732e-12      -3.599611943761e-15 
   41       4.652686472107e-10       4.863582080470e-15       4.197385480094e-13       0.000000000000e+00       1.126007886240e-10       8.223846311101e-13      -3.195050599528e-15 
   42       4.617846047542e-10       5.282161707660e-15       4.155278897671e-13       0.000000000000e+00       1.075335939762e-10       6.228346673875e-13      -3.823782165914e-15 
   43       4.585127758276e-10       5.723907058880e-15       4.094694332471e-13       0.000000000000e+00       1.027890962595e-10       4.280794422584e-13      -5.158600118676e-15 
   44       4.554252347687e-10       6.189650046439e-15       4.019451087353e-13       0.000000000000e+00       9.833741617699e-11       2.247670738314e-13      -6.790154750430e-15 
   45       4.524825545198e-10       6.680182175238e-15       3.933520477602e-13       0.000000000000e+00       9.413961814107e-11       2.019361716144e-15      -8.306424183916e-15 
   46       4.496949720106e-10       7.195996704172e-15       3.838762077009e-13       0.000000000000e+00       9.018897695578e-11      -2.310693331938e-13      -9.571343392799e-15 
   47       4.470753454104e-10       7.737472698192e-15       3.736589565067e-13       0.000000000000e+00       8.647927509625e-11      -4.579755463309e-13      -1.052089575302e-14 
   48       4.446204686148e-10       8.304943277631e-15       3.628606775197e-13       0.000000000000e+00       8.299222249291e-11      -6.594172132315e-13      -1.108565930937e-14 
   49       4.423097151541e-10       8.898693099193e-15       3.516614421380e-13       0.000000000000e+00       7.969656229098e-11      -8.132129237502e-13      -1.119063092353e-14 
   50       4.401155028660e-10       9.518995783179e-15       3.402057718554e-13       0.000000000000e+00       7.655775167126e-11      -9.011378271175e-13      -1.078917342030e-14 
   51       4.380411827423e-10       1.016624401597e-14       3.284176876552e-13       0.000000000000e+00       7.357217681327e-11      -9.320117669542e-13      -9.976128089422e-15 
   52       4.360910904939e-10       1.084085040811e-14       3.161366206045e-13       0.000000000000e+00       7.074067944754e-11      -9.246348717984e-13      -8.905101322885e-15 
   53       4.342588438129e-10       1.154321001066e-14       3.031670227568e-13       0.000000000000e+00       6.805840632618e-11      -9.015226819941e-13      -7.758421103482e-15 
   54       4.325265425530e-10       1.227369967595e-14       2.892764087265e-13       0.000000000000e+00       6.551441263225e-11      -8.890946580621e-13      -6.748566941021e-15 
   55       4.308732014215e-10       1.303270198972e-14       2.742384485195e-13       0.000000000000e+00       6.309540065495e-11      -9.110221278709e-13      -6.069276738641e-15 
   56       4.293043335204e-10       1.382068549395e-14       2.579792686945e-13       0.000000000000e+00       6.079893198237e-11      -9.659051299639e-13      -5.731368080840e-15 
   57       4.278283150440e-10       1.463814327347e-14       2.404640652154e-13       0.000000000000e+00       5.862280284156e-11      -1.044380206097e-12      -5.688636074381e-15 
   58       4.264473661236e-10       1.548557044200e-14       2.216550377072e-13       0.000000000000e+00       5.656096604735e-11      -1.135398785849e-12      -5.884083887645e-15 
   59       4.251571107155e-10       1.636346446028e-14       2.015111862746e-13       0.000000000000e+00       5.460329552611e-11      -1.226149179621e-12      -6.249392047761e-15 
   60       4.239461364885e-10       1.727232545417e-14       1.799881083208e-13       0.000000000000e+00       5.273535083936e-11      -1.301978571638e-12      -6.704387737737e-15 
   61       4.228015232812e-10       1.821253969597e-14       1.570520273301e-13       0.000000000000e+00       5.094241320459e-11      -1.350056621893e-12      -7.170003322350e-15 
   62       4.217278742214e-10       1.918399876625e-14       1.327260185531e-13       0.000000000000e+00       4.922318490287e-11      -1.371503691608e-12      -7.611751489925e-15 
   63       4.207317947993e-10       2.018639508429e-14       1.070538458445e-13       0.000000000000e+00       4.757876098757e-11      -1.371858892532e-12      -8.005111241676e-15 
   64       4.198160554776e-10       2.121932787989e-14       8.008688875114e-14       0.000000000000e+00       4.600853116391e-11      -1.357618604906e-12      -8.322799102553e-15 
   65       4.189793409572e-10       2.228229980435e-14       5.188439090086e-14       0.000000000000e+00       4.451007984408e-11      -1.336277188882e-12      -8.534666421391e-15 
   66       4.182159994436e-10       2.337471354143e-14       2.251370838997e-14       0.000000000000e+00       4.307908620224e-11      -1.316367695948e-12      -8.607596671075e-15 
   67       4.175157919128e-10       2.449586841843e-14      -7.949441828435e-15       0.000000000000e+00       4.170922422963e-11      -1.307502580348e-12      -8.505402748698e-15 
   68       4.168681857251e-10       2.564511761493e-14      -3.943975853403e-14       0.000000000000e+00       4.039394207828e-11      -1.317935299266e-12      -8.201363340691e-15 
   69       4.162768061929e-10       2.682238435524e-14      -7.196365924914e-14       0.000000000000e+00       3.913244216791e-11      -1.346580370222e-12      -7.719011315552e-15 
   70       4.157474763062e-10       2.802774470255e-14      -1.055500096899e-13       0.000000000000e+00       3.792473882818e-11      -1.389442073746e-12      -7.099463612336e-15 
   71       4.152837993778e-10       2.926127692103e-14      -1.402324317606e-13       0.000000000000e+00       3.676983527186e-11      -1.441928211805e-12      -6.389730037503e-15 
   72       4.148870245330e-10       3.052306219417e-14      -1.760495417381e-13       0.000000000000e+00       3.566567171359e-11      -1.498827414850e-12      -5.642933814821e-15 
   73       4.145559121995e-10       3.181318534316e-14      -2.130451884561e-13       0.000000000000e+00       3.460907348855e-11      -1.554286448854e-12      -4.918532135266e-15 
   74       4.142865995972e-10       3.313173554522e-14      -2.512686914891e-13       0.000000000000e+00       3.359569917118e-11      -1.601787522362e-12      -4.282536706930e-15 
   75       4.140724662279e-10       3.447880705196e-14      -2.907750793371e-13       0.000000000000e+00       3.261998869389e-11      -1.634125593526e-12      -3.807734304916e-15 
   76       4.139068962339e-10       3.585440209329e-14      -3.316114674062e-13       0.000000000000e+00       3.167657743251e-11      -1.645265200816e-12      -3.554938557095e-15 
   77       4.137924443623e-10       3.725811755978e-14      -3.737727976457e-13       0.000000000000e+00       3.076495084987e-11      -1.636352030226e-12      -3.512310777513e-15 
   78       4.137331048462e-10       3.868940222498e-14      -4.172384230547e-13       0.000000000000e+00       2.988554833461e-11      -1.610761450950e-12      -3.645323280255e-15 
   79       4.137314889250e-10       4.014764822461e-14      -4.619852065814e-13       0.000000000000e+00       2.903835106711e-11      -1.572331835154e-12      -3.914580816110e-15 
   80       4.137887497365e-10       4.163218976920e-14      -5.079874750929e-13       0.000000000000e+00       2.822286019897e-11      -1.525380406178e-12      -4.275652152600e-15 
   81       4.139045072096e-10       4.314230185663e-14      -5.552169733446e-13       0.000000000000e+00       2.743807503257e-11      -1.474719086731e-12      -4.678901654012e-15 
   82       4.140767729566e-10       4.467719898474e-14      -6.036428179495e-13       0.000000000000e+00       2.668247120067e-11      -1.425670347091e-12      -5.069320861421e-15 
   83       4.143018751657e-10       4.623603386395e-14      -6.532314513485e-13       0.000000000000e+00       2.595397884586e-11      -1.384083053304e-12      -5.386360072724e-15 
   84       4.145761010398e-10       4.781795718847e-14      -7.039510126273e-13       0.000000000000e+00       2.525051757688e-11      -1.355038711880e-12      -5.577348223198e-15 
   85       4.149011014801e-10       4.942231115510e-14      -7.557853833358e-13       0.000000000000e+00       2.457175103088e-11      -1.338689059214e-12      -5.640677614842e-15 
   86       4.152792488441e-10       5.104846581451e-14      -8.087223966001e-13       0.000000000000e+00       2.391758452607e-11      -1.333754281215e-12      -5.589502796980e-15 
   87       4.157119535030e-10       5.269576060766e-14      -8.627496550911e-13       0.000000000000e+00       2.328762186745e-11      -1.338765193292e-12      -5.438847863756e-15 
   88       4.161996176004e-10       5.436350410452e-14      -9.178545592270e-13       0.000000000000e+00       2.268115288394e-11      -1.352057078414e-12      -5.205666408951e-15 
   89       4.167415888106e-10       5.605097374291e-14      -9.740243353753e-13       0.000000000000e+00       2.209714096550e-11      -1.371763525161e-12      -4.908901480820e-15 
   90       4.173361140977e-10       5.775741556728e-14      -1.031246064055e-12       0.000000000000e+00       2.153421060031e-11      -1.395810265781e-12      -4.569545536915e-15 
   91       4.179802934743e-10       5.948204396747e-14      -1.089506708141e-12       0.000000000000e+00       2.099063491186e-11      -1.421909014245e-12      -4.210700398915e-15 
   92       4.186700337602e-10       6.122404141753e-14      -1.148793141061e-12       0.000000000000e+00       2.046432319609e-11      -1.447551304301e-12      -3.857637207451e-15 
   93       4.194015573122e-10       6.298256112805e-14      -1.209090608291e-12       0.000000000000e+00       1.995332072775e-11      -1.470485770618e-12      -3.532933421269e-15 
   94       4.201762882173e-10       6.475673602681e-14      -1.270377785870e-12       0.000000000000e+00       1.945742123747e-11      -1.490245489097e-12      -3.240916944939e-15 
   95       4.209966189073e-10       6.654567065216e-14      -1.332631027368e-12       0.000000000000e+00       1.897677503718e-11      -1.506840024693e-12      -2.980982361015e-15 
   96       4.218643961046e-10       6.834843814155e-14      -1.395825870985e-12       0.000000000000e+00       1.851139300140e-11      -1.520292923975e-12      -2.752297902721e-15 
   97       4.227808959258e-10       7.016408001033e-14      -1.459937046249e-12       0.000000000000e+00       1.806114113617e-11      -1.530642189320e-12      -2.553797832179e-15 
   98       4.237467989853e-10       7.199160593050e-14      -1.524938480711e-12       0.000000000000e+00       1.762573514807e-11      -1.537940753119e-12      -2.384174818631e-15 
   99       4.247621654986e-10       7.382999350951e-14      -1.590803306641e-12       0.000000000000e+00       1.720473501315e-11      -1.542256951969e-12      -2.241872316660e-15 
  100       4.258264103865e-10       7.567818806905e-14      -1.657503867728e-12       0.000000000000e+00       1.679753954591e-11      -1.543675000876e-12      -2.125076944413e-15 
  101       4.269382783779e-10       7.753510242381e-14      -1.725011725768e-12       0.000000000000e+00       1.640338096830e-11      -1.542295467455e-12      -2.031710861828e-15 
  102       4.280958191140e-10       7.939961666030e-14      -1.793297667371e-12       0.000000000000e+00       1.602131947862e-11      -1.538235746125e-12      -1.959424148849e-15 
  103       4.292963622515e-10       8.127057791557e-14      -1.862331710647e-12       0.000000000000e+00       1.565023782057e-11      -1.531630532311e-12      -1.905587183659e-15 
  104       4.305374612890e-10       8.314682562053e-14      -1.932083157768e-12       0.000000000000e+00       1.528910438951e-11      -1.522658362420e-12      -1.867662930668e-15 
  105       4.318199238723e-10       8.502727158968e-14      -2.002520746277e-12       0.000000000000e+00       1.493781472690e-11      -1.511624295484e-12      -1.844397495736e-15 
  106       4.331451463306e-10       8.691083038828e-14      -2.073612530797e-12       0.000000000000e+00       1.459645410369e-11      -1.498889336638e-12      -1.834776937131e-15 
  107       4.345141674294e-10       8.879639489191e-14      -2.145325846108e-12       0.000000000000e+00       1.426503668376e-11      -1.484846120191e-12      -1.837658311988e-15 
