# dimensionless total lensed [l(l+1)/2pi] C_l's
# for l=2 to 2500, i.e. number of multipoles equal to 2499
#
# -> if you prefer output in CAMB/HealPix/LensPix units/order, set 'format' to 'camb' in input file
# -> if you don't want to see such a header, set 'headers' to 'no' in input file
# -> for CMB lensing (phi), these are C_l^phi-phi for the lensing potential.
#    Remember the conversion factors:
#    C_l^dd (deflection) = l(l+1) C_l^phi-phi
#    C_l^gg (shear/convergence) = 1/4 (l(l+1))^2 C_l^phi-phi
#
# 1:l     2:TT                     3:EE                     4:TE                     5:BB                     6:phiphi                 7:TPhi                   8:Ephi               
    2       1.230709028362e-09       6.317730227304e-15       2.195554054349e-12       3.355461329751e-19       9.093510965927e-09       3.326247915419e-11      -2.276552546242e-12 
    3       1.197023575154e-09       8.063831000196e-15       2.394631669700e-12       6.711687920204e-19       5.671695031771e-09       8.557514935563e-11      -1.727446974744e-12 
    4       1.147827740505e-09       6.930778983512e-15       2.232962601626e-12       1.118784716590e-18       4.006872008214e-09       8.947737016580e-11      -1.132254097672e-12 
    5       1.096720439246e-09       4.568015132864e-15       1.894759367570e-12       1.678495902461e-18       3.031517869187e-09       8.190014378497e-11      -6.292884637075e-13 
    6       1.047772407994e-09       2.496211477494e-15       1.493323571541e-12       2.350429675379e-18       2.396640872042e-09       7.237725645232e-11      -2.572145495632e-13 
    7       1.002094809291e-09       1.305696757662e-15       1.101923378031e-12       3.134738408654e-18       1.955480112287e-09       6.331086025226e-11      -1.891296144196e-14 
    8       9.597386369125e-10       8.277814957349e-16       7.608313844736e-13       4.031599029295e-18       1.633258139440e-09       5.531266810369e-11       1.028705124870e-13 
    9       9.205732488552e-10       6.703644290054e-16       4.883181892103e-13       5.041212246044e-18       1.388560827118e-09       4.845085945310e-11       1.360651921132e-13 
   10       8.844840553723e-10       5.773095063205e-16       2.881793426665e-13       6.163801435083e-18       1.197332396140e-09       4.261763465123e-11       1.122673405368e-13 
   11       8.513111161240e-10       4.877615180836e-16       1.552583213800e-13       7.399611126560e-18       1.000304724294e-09       3.687646992247e-11       6.115377196886e-14 
   12       8.206606739916e-10       4.289606517221e-16       7.958534248762e-14       8.748905047090e-18       8.801947053350e-10       3.270995490615e-11       6.247055163864e-15 
   13       7.923017982381e-10       4.141768964061e-16       4.934075434362e-14       1.021196368974e-17       7.812476556431e-10       2.838450205295e-11      -3.739709155795e-14 
   14       7.661279464960e-10       4.198766246189e-16       5.274671210078e-14       1.178908140291e-17       6.982690065863e-10       2.581666336126e-11      -6.215637930684e-14 
   15       7.419251307734e-10       4.162395578068e-16       7.910107261694e-14       1.348056301221e-17       6.287236594792e-10       1.967830879048e-11      -6.918177934904e-14 
   16       7.194609002712e-10       3.958546484048e-16       1.192908623518e-13       1.528672001357e-17       5.685297856921e-10       1.905812618812e-11      -5.994434255313e-14 
   17       6.987208378836e-10       3.740068879817e-16       1.660230608897e-13       1.720786640078e-17       5.168122506169e-10       1.768118098747e-11      -4.264958296313e-14 
   18       6.794681048202e-10       3.713366155296e-16       2.136516116745e-13       1.924431446058e-17       4.717909138181e-10       1.594367368182e-11      -2.391616321221e-14 
   19       6.618112786258e-10       3.943552188364e-16       2.587047294359e-13       2.139636891999e-17       4.326923314022e-10       1.459159041862e-11      -7.674616671582e-15 
   20       6.454085441752e-10       4.429110474472e-16       2.982436527535e-13       2.366432486299e-17       3.981253813302e-10       1.322884972929e-11       2.665528919026e-15 
   21       6.302810916824e-10       5.114959820940e-16       3.308109169860e-13       2.604846011326e-17       3.675812938949e-10       1.187229350858e-11       6.847227953572e-15 
   22       6.162448369161e-10       5.921922420099e-16       3.557831798390e-13       2.854903342840e-17       3.403389861791e-10       1.065380193173e-11       6.172868731513e-15 
   23       6.033064507613e-10       6.841292041557e-16       3.732127347762e-13       3.116627864438e-17       3.160517031967e-10       9.550475483863e-12       2.348730465792e-15 
   24       5.913151521825e-10       7.884994065913e-16       3.837908442716e-13       3.390040277773e-17       2.941933368754e-10       8.488270048173e-12      -2.510676992565e-15 
   25       5.802524586382e-10       9.056924587581e-16       3.886288205591e-13       3.675158292676e-17       2.745248524400e-10       7.496406716869e-12      -7.066401590191e-15 
   26       5.699869569698e-10       1.035721533312e-15       3.893108165445e-13       3.971996361722e-17       2.567067490313e-10       6.608800829438e-12      -1.030264347853e-14 
   27       5.604709602013e-10       1.178620857782e-15       3.873843313053e-13       4.280565630794e-17       2.405517034591e-10       5.722700584135e-12      -1.236797824685e-14 
   28       5.515884676405e-10       1.334501431751e-15       3.845246996307e-13       4.600873797165e-17       2.258074888858e-10       4.721420434306e-12      -1.379416618348e-14 
   29       5.433679501733e-10       1.504268006852e-15       3.818433812198e-13       4.932926048787e-17       2.123918972322e-10       3.729594828399e-12      -1.474959015698e-14 
   30       5.357642559773e-10       1.689163905685e-15       3.804220905878e-13       5.276723975401e-17       2.001397431984e-10       2.981142404454e-12      -1.532791937771e-14 
   31       5.286325682754e-10       1.890428713575e-15       3.812831554579e-13       5.632265798539e-17       1.887849507548e-10       2.681728912847e-12      -1.562767535199e-14 
   32       5.219779059063e-10       2.108747332704e-15       3.844925192077e-13       5.999549081359e-17       1.782904664624e-10       2.713393819053e-12      -1.560564163835e-14 
   33       5.157764575508e-10       2.344588207333e-15       3.896997092672e-13       6.378568689250e-17       1.686216048080e-10       2.813035942942e-12      -1.516912082253e-14 
   34       5.099429231751e-10       2.598429085955e-15       3.963560785726e-13       6.769316966371e-17       1.596835612682e-10       2.720280219970e-12      -1.423425847121e-14 
   35       5.044813435855e-10       2.871072997886e-15       4.037330113209e-13       7.171787420947e-17       1.514341299329e-10       2.445847498375e-12      -1.279940121570e-14 
   36       4.993730720484e-10       3.163441588196e-15       4.108796153450e-13       7.585972153995e-17       1.437982795987e-10       2.097182656662e-12      -1.089892145939e-14 
   37       4.945611518646e-10       3.476410973620e-15       4.167919994611e-13       8.011862317939e-17       1.366680976678e-10       1.782831697859e-12      -8.625378703693e-15 
   38       4.900573682325e-10       3.810528682338e-15       4.210714729790e-13       8.449453283497e-17       1.300260908464e-10       1.520016442520e-12      -6.267052435775e-15 
   39       4.858615015904e-10       4.166198067480e-15       4.234718632746e-13       8.898741191941e-17       1.238553458734e-10       1.297344905578e-12      -4.221981326647e-15 
   40       4.819270211690e-10       4.543747120270e-15       4.237215404783e-13       9.359721637643e-17       1.181023970814e-10       1.099158571967e-12      -2.967269604586e-15 
   41       4.781858054002e-10       4.943500167569e-15       4.216111335911e-13       9.832391110349e-17       1.126969065704e-10       9.086076411882e-13      -2.914965546304e-15 
   42       4.746425915635e-10       5.366034093695e-15       4.172942029824e-13       1.031675176053e-16       1.076261518424e-10       7.188291092759e-13      -3.911896931371e-15 
   43       4.713038439044e-10       5.811996384344e-15       4.110822190893e-13       1.081280827366e-16       1.028793656911e-10       5.248835648616e-13      -5.584978955629e-15 
   44       4.681489065377e-10       6.282035068618e-15       4.033686808454e-13       1.132056675963e-16       9.842531210261e-11       3.206056592297e-13      -7.470612664599e-15 
   45       4.651447127015e-10       6.776758299919e-15       3.945645948819e-13       1.184003481262e-16       9.422380907058e-11       1.018131629860e-13      -9.108415449875e-15 
   46       4.623008408131e-10       7.296599013983e-15       3.848705932761e-13       1.237122136105e-16       9.026828445983e-11      -1.227399933003e-13      -1.036880047284e-14 
   47       4.596268147586e-10       7.841909574334e-15       3.744448577385e-13       1.291413702598e-16       8.655314228080e-11      -3.391734812967e-13      -1.121396641914e-14 
   48       4.571150222499e-10       8.412996146794e-15       3.634673179886e-13       1.346879434627e-16       8.306083329497e-11      -5.313733202114e-13      -1.160736885258e-14 
   49       4.547392886685e-10       9.010116241728e-15       3.521404621353e-13       1.403520792233e-16       7.976096715615e-11      -6.808797784401e-13      -1.151393032433e-14 
   50       4.524671979639e-10       9.633529121068e-15       3.406280781205e-13       1.461339239625e-16       7.661974644345e-11      -7.726219702215e-13      -1.092698006554e-14 
   51       4.503043067219e-10       1.028366885158e-14       3.288499952291e-13       1.520335541251e-16       7.363334748292e-11      -8.142167847144e-13      -9.957206313852e-15 
   52       4.482594663060e-10       1.096101397660e-14       3.166330282738e-13       1.580510299501e-16       7.080206565436e-11      -8.217146641864e-13      -8.768212276970e-15 
   53       4.463313639835e-10       1.166603878602e-14       3.037661165509e-13       1.641864158456e-16       6.812039284155e-11      -8.143699279122e-13      -7.553329994558e-15 
   54       4.445077436888e-10       1.239921334634e-14       2.899982133288e-13       1.704397808081e-16       6.557661530958e-11      -8.148038124088e-13      -6.537088310151e-15 
   55       4.427724856384e-10       1.316101000233e-14       2.750849983411e-13       1.768111630134e-16       6.315674734045e-11      -8.433222205281e-13      -5.921602521179e-15 
   56       4.411306898609e-10       1.395192470468e-14       2.589474393423e-13       1.833004523278e-16       6.085839769678e-11      -8.988424399333e-13      -5.706784600677e-15 
   57       4.395884590605e-10       1.477246103316e-14       2.415489239208e-13       1.899074793445e-16       5.867964353598e-11      -9.735137898024e-13      -5.828040602985e-15 
   58       4.381451229608e-10       1.562312446514e-14       2.228496838334e-13       1.966320476991e-16       5.661476833657e-11      -1.058084488437e-12      -6.206772648176e-15 
   59       4.367927652576e-10       1.650442265776e-14       2.028065866891e-13       2.034739330934e-16       5.465402870121e-11      -1.141836954884e-12      -6.749700985319e-15 
   60       4.355157505712e-10       1.741686573008e-14       1.813729276337e-13       2.104328823184e-16       5.278342115972e-11      -1.212523110551e-12      -7.348186055736e-15 
   61       4.342973551558e-10       1.836084292446e-14       1.585130176207e-13       2.175085998084e-16       5.098861243615e-11      -1.259431768324e-12      -7.898112529443e-15 
   62       4.331424684027e-10       1.933621960142e-14       1.342502459302e-13       2.247007059870e-16       4.926828870043e-11      -1.283541727824e-12      -8.366290592417e-15 
   63       4.320591706921e-10       2.034264987493e-14       1.086294852346e-13       2.320087677957e-16       4.762340252386e-11      -1.289543214485e-12      -8.737823960200e-15 
   64       4.310518365353e-10       2.137968868279e-14       8.170350297369e-14       2.394323089930e-16       4.605317473035e-11      -1.282940886297e-12      -8.996838089149e-15 
   65       4.301208869243e-10       2.244678814640e-14       5.353322252276e-14       2.469708087819e-16       4.455499330304e-11      -1.270088514190e-12      -9.126454655551e-15 
   66       4.292625416810e-10       2.354329393046e-14       2.418798436156e-14       2.546237004378e-16       4.312431229082e-11      -1.258223662426e-12      -9.108766034744e-15 
   67       4.284685718064e-10       2.466844160276e-14      -6.254192757347e-15       2.623903699360e-16       4.175455071498e-11      -1.255502368980e-12      -8.924809780232e-15 
   68       4.277302295496e-10       2.582152695929e-14      -3.772534352352e-14       2.702702148812e-16       4.043893262181e-11      -1.268926340037e-12      -8.563186692705e-15 
   69       4.270515169090e-10       2.700246521292e-14      -7.022874246441e-14       2.782628382297e-16       3.917666616777e-11      -1.297559293655e-12      -8.047999854718e-15 
   70       4.264381731411e-10       2.821133909222e-14      -1.037897033135e-13       2.863678915355e-16       3.796784072377e-11      -1.337992054580e-12      -7.416556944015e-15 
   71       4.258935966433e-10       2.944823569581e-14      -1.384379036507e-13       2.945850182885e-16       3.681154598408e-11      -1.386309545863e-12      -6.711419579710e-15 
   72       4.254187041497e-10       3.071324730144e-14      -1.742076094852e-13       3.029138540842e-16       3.570582051862e-11      -1.438071569359e-12      -5.980598865078e-15 
   73       4.250117899283e-10       3.200647217496e-14      -2.111378998386e-13       3.113540267940e-16       3.464760032513e-11      -1.488293586215e-12      -5.277750930361e-15 
   74       4.246683849763e-10       3.332801537930e-14      -2.492728913274e-13       3.199051567349e-16       3.363266738151e-11      -1.531427497363e-12      -4.662372475558e-15 
   75       4.243811162173e-10       3.467798958350e-14      -2.886619627468e-13       3.285668568395e-16       3.265559819802e-11      -1.561342424012e-12      -4.199996313230e-15 
   76       4.241426270487e-10       3.605641705801e-14      -3.293478491304e-13       3.373387981875e-16       3.171114533227e-11      -1.572905453611e-12      -3.945266237498e-15 
   77       4.239552650889e-10       3.746291323981e-14      -3.713279209736e-13       3.462209200211e-16       3.079878650608e-11      -1.567099151591e-12      -3.887166193073e-15 
   78       4.238229134335e-10       3.889694666557e-14      -4.145862193068e-13       3.552132585136e-16       2.991891542594e-11      -1.546806670269e-12      -3.994112239805e-15 
   79       4.237480092605e-10       4.035793146865e-14      -4.591049360433e-13       3.643158862911e-16       2.907146070651e-11      -1.515307940741e-12      -4.230034161562e-15 
   80       4.237314658018e-10       4.184522616183e-14      -5.048643898163e-13       3.735289139427e-16       2.825586380693e-11      -1.476293261958e-12      -4.554219935749e-15 
   81       4.237725943158e-10       4.335813242011e-14      -5.518430018151e-13       3.828524915306e-16       2.747105696711e-11      -1.433876889807e-12      -4.921160202814e-15 
   82       4.238690260582e-10       4.489589386336e-14      -6.000172716226e-13       3.922868101005e-16       2.671544114407e-11      -1.392610626192e-12      -5.280392735772e-15 
   83       4.240166342548e-10       4.645769483914e-14      -6.493617530515e-13       4.018321031918e-16       2.598686394824e-11      -1.357497408113e-12      -5.576346909711e-15 
   84       4.242113461959e-10       4.804271257791e-14      -6.998515578303e-13       4.114885947698e-16       2.528317300329e-11      -1.332889520182e-12      -5.760530202898e-15 
   85       4.244550956029e-10       4.965028625936e-14      -7.514703964817e-13       4.212563297973e-16       2.460402975746e-11      -1.318943601319e-12      -5.830749624207e-15 
   86       4.247507185653e-10       5.127977387223e-14      -8.042038323472e-13       4.311353182138e-16       2.394935730914e-11      -1.314600135726e-12      -5.798137441498e-15 
   87       4.251001055736e-10       5.293050101830e-14      -8.580368903094e-13       4.411255866169e-16       2.331877950819e-11      -1.318641496828e-12      -5.675438392990e-15 
   88       4.255041552579e-10       5.460176059210e-14      -9.129540751132e-13       4.512271788716e-16       2.271160856324e-11      -1.329686790530e-12      -5.477061585870e-15 
   89       4.259627281266e-10       5.629281246073e-14      -9.689393896881e-13       4.614401567207e-16       2.212683264899e-11      -1.346186698471e-12      -5.219132394914e-15 
   90       4.264746003048e-10       5.800288314354e-14      -1.025976353469e-12       4.717646003942e-16       2.156310351350e-11      -1.366418321280e-12      -4.919544361105e-15 
   91       4.270374172732e-10       5.973116549199e-14      -1.084048020719e-12       4.822006092191e-16       2.101872408551e-11      -1.388480021832e-12      -4.598011090244e-15 
   92       4.276476476062e-10       6.147681836930e-14      -1.143136998850e-12       4.927483022289e-16       2.049163608170e-11      -1.410286268501e-12      -4.276118151574e-15 
   93       4.283019784196e-10       6.323897477331e-14      -1.203224761625e-12       5.034077556141e-16       1.997991330518e-11      -1.429958006890e-12      -3.973298598825e-15 
   94       4.290018422705e-10       6.501676829769e-14      -1.264289430812e-12       5.141788029853e-16       1.948335332695e-11      -1.447072136401e-12      -3.693954423883e-15 
   95       4.297494887386e-10       6.680931007689e-14      -1.326307693216e-12       5.250612060571e-16       1.900210339445e-11      -1.461591295131e-12      -3.438485111523e-15 
   96       4.305465772656e-10       6.861568049613e-14      -1.389255484590e-12       5.360547148774e-16       1.853617069231e-11      -1.473485344524e-12      -3.207187429546e-15 
   97       4.313941506844e-10       7.043492898710e-14      -1.453107998286e-12       5.471590675700e-16       1.808541689120e-11      -1.482731641978e-12      -3.000251371629e-15 
   98       4.322926087474e-10       7.226607382353e-14      -1.517839693892e-12       5.583739900779e-16       1.764955269666e-11      -1.489315313454e-12      -2.817756100175e-15 
   99       4.332416816552e-10       7.410810191694e-14      -1.583424305877e-12       5.696991959055e-16       1.722813239791e-11      -1.493229526088e-12      -2.659665889164e-15 
  100       4.342404035856e-10       7.595996861222e-14      -1.649834852231e-12       5.811343858618e-16       1.682054841673e-11      -1.494475760801e-12      -2.525826067006e-15 
  101       4.352870862221e-10       7.782059748333e-14      -1.717043643112e-12       5.926792478029e-16       1.642602585628e-11      -1.493064084906e-12      -2.415958959385e-15 
  102       4.363792922825e-10       7.968888012893e-14      -1.785022289483e-12       6.043334563747e-16       1.604361704990e-11      -1.489013424720e-12      -2.329659832118e-15 
  103       4.375138090480e-10       8.156367596806e-14      -1.853741711759e-12       6.160966727561e-16       1.567219611002e-11      -1.482351838173e-12      -2.266392833997e-15 
  104       4.386877263747e-10       8.344383635338e-14      -1.923172039698e-12       6.279686646322e-16       1.531072361113e-11      -1.473164701057e-12      -2.225278833947e-15 
  105       4.399018935937e-10       8.532828106090e-14      -1.993282278055e-12       6.399496851271e-16       1.495909310045e-11      -1.461746091870e-12      -2.204435030501e-15 
  106       4.411578824120e-10       8.721593180005e-14      -2.064040611664e-12       6.520401448184e-16       1.461738930834e-11      -1.448468460283e-12      -2.201538154211e-15 
  107       4.424569099681e-10       8.910568888087e-14      -2.135414517515e-12       6.642404971282e-16       1.428562577280e-11      -1.433737329137e-12      -2.214018339598e-15 
