# dimensionless total [l(l+1)/2pi] C_l's
# for l=2 to 3000, i.e. number of multipoles equal to 2999
#
# -> if you prefer output in CAMB/HealPix/LensPix units/order, set 'format' to 'camb' in input file
# -> if you don't want to see such a header, set 'headers' to 'no' in input file
# -> for CMB lensing (phi), these are C_l^phi-phi for the lensing potential.
#    Remember the conversion factors:
#    C_l^dd (deflection) = l(l+1) C_l^phi-phi
#    C_l^gg (shear/convergence) = 1/4 (l(l+1))^2 C_l^phi-phi
#
# 1:l     2:TT                     3:EE                     4:TE                     5:BB                     6:phiphi                 7:TPhi                   8:Ephi               
    2       1.384401437546e-10       8.603516651112e-16       1.613442278805e-13       0.000000000000e+00       9.882430516929e-09       4.915493237382e-10      -8.351889053338e-13 
    3       1.326262115970e-10       1.118313596464e-15       1.855550013684e-13       0.000000000000e+00       6.229703371433e-09       3.564472112129e-10      -6.353040790556e-13 
    4       1.270774493623e-10       9.895306602206e-16       1.795177040794e-13       0.000000000000e+00       4.436782597590e-09       2.757099585837e-10      -4.178456234465e-13 
    5       1.230821342324e-10       6.930115536945e-16       1.613912679711e-13       0.000000000000e+00       3.384193185450e-09       2.222025308519e-10      -2.347093041391e-13 
    6       1.205307806036e-10       4.302814851388e-16       1.413658880106e-13       0.000000000000e+00       2.695387902696e-09       1.843011005019e-10      -1.003064363761e-13 
    7       1.191243857266e-10       2.793007161122e-16       1.250688711306e-13       0.000000000000e+00       2.213472224547e-09       1.561687844464e-10      -1.533961113716e-14 
    8       1.185249334887e-10       2.202822473283e-16       1.147728467313e-13       0.000000000000e+00       1.859504186737e-09       1.345798816881e-10       2.719778664072e-14 
    9       1.186104085775e-10       2.066350933162e-16       1.108753862982e-13       0.000000000000e+00       1.589738555034e-09       1.176035491734e-10       3.825069689614e-14 
   10       1.192426200263e-10       2.097468225305e-16       1.127552550581e-13       0.000000000000e+00       1.378244318897e-09       1.039421318880e-10       2.986167890789e-14 
   11       1.202185491177e-10       2.245951796537e-16       1.193802031123e-13       0.000000000000e+00       1.138141223574e-09       9.176830245334e-11       1.335998275272e-14 
   12       1.215359823383e-10       2.561816958936e-16       1.296137308882e-13       0.000000000000e+00       1.005479775283e-09       8.228929595450e-11      -3.779379147219e-15 
   13       1.231207644329e-10       3.081547239896e-16       1.423990315842e-13       0.000000000000e+00       8.956721031931e-10       7.413182088611e-11      -1.653477223457e-14 
   14       1.249343842060e-10       3.807124894786e-16       1.568614747252e-13       0.000000000000e+00       8.035683674946e-10       6.728561511321e-11      -2.266011804791e-14 
   15       1.269373318412e-10       4.737281731127e-16       1.722815239910e-13       0.000000000000e+00       7.254384955223e-10       6.144404278320e-11      -2.275159407024e-14 
   16       1.290728824223e-10       5.888188231377e-16       1.882748993900e-13       0.000000000000e+00       6.585026903436e-10       5.628712288950e-11      -1.906525454984e-14 
   17       1.314241714671e-10       7.285928195075e-16       2.045224597997e-13       0.000000000000e+00       6.006502504610e-10       5.168575216837e-11      -1.415836314280e-14 
   18       1.338643219060e-10       8.953728988356e-16       2.207873768199e-13       0.000000000000e+00       5.500584977594e-10       4.764877306193e-11      -9.993212246516e-15 
   19       1.364030505547e-10       1.090771211567e-15       2.369922894349e-13       0.000000000000e+00       5.060646345529e-10       4.413786905321e-11      -7.549316596961e-15 
   20       1.390589815400e-10       1.316046448715e-15       2.530838905650e-13       0.000000000000e+00       4.670414881831e-10       4.099539153603e-11      -7.397750995180e-15 
   21       1.418199601212e-10       1.573302213383e-15       2.689033458734e-13       0.000000000000e+00       4.324452385514e-10       3.817851915215e-11      -9.079896278094e-15 
   22       1.446359212188e-10       1.864868726702e-15       2.842490694072e-13       0.000000000000e+00       4.015209248041e-10       3.563929393427e-11      -1.159019729065e-14 
   23       1.475314987347e-10       2.192950987226e-15       2.989898424689e-13       0.000000000000e+00       3.738913961577e-10       3.336519120661e-11      -1.402676075352e-14 
   24       1.505293798652e-10       2.559696771332e-15       3.130022317551e-13       0.000000000000e+00       3.489621867820e-10       3.132145065277e-11      -1.552434131970e-14 
   25       1.536173672646e-10       2.967397178950e-15       3.261031989906e-13       0.000000000000e+00       3.264747755207e-10       2.945899950024e-11      -1.594658544342e-14 
   26       1.567578431726e-10       3.418404300125e-15       3.380985516469e-13       0.000000000000e+00       3.060566509847e-10       2.771322735145e-11      -1.546659660109e-14 
   27       1.599505820755e-10       3.915206306630e-15       3.488905920274e-13       0.000000000000e+00       2.874897386155e-10       2.609376796465e-11      -1.444035218684e-14 
   28       1.631968292009e-10       4.460341414686e-15       3.584161120033e-13       0.000000000000e+00       2.704804234979e-10       2.462028155815e-11      -1.331643059036e-14 
   29       1.665054056904e-10       5.056330005166e-15       3.665964643134e-13       0.000000000000e+00       2.549591188002e-10       2.328740940249e-11      -1.237152833840e-14 
   30       1.698746945667e-10       5.705689834015e-15       3.733545495620e-13       0.000000000000e+00       2.407760572592e-10       2.206653872580e-11      -1.186978351236e-14 
   31       1.732925117646e-10       6.410910466689e-15       3.786130484380e-13       0.000000000000e+00       2.276622030658e-10       2.091952741828e-11      -1.203140235947e-14 
   32       1.767646336731e-10       7.174345831761e-15       3.822627046480e-13       0.000000000000e+00       2.155622156551e-10       1.984708401322e-11      -1.268541634541e-14 
   33       1.802942273029e-10       7.998269650848e-15       3.841817826156e-13       0.000000000000e+00       2.044019723699e-10       1.885662289066e-11      -1.347771396591e-14 
   34       1.838765538736e-10       8.884922844931e-15       3.842497693307e-13       0.000000000000e+00       1.940386523163e-10       1.794855264235e-11      -1.404135024999e-14 
   35       1.875110833133e-10       9.836608538803e-15       3.823680391981e-13       0.000000000000e+00       1.844277945006e-10       1.711477268237e-11      -1.430351095261e-14 
   36       1.911916963925e-10       1.085562087625e-14       3.784464239662e-13       0.000000000000e+00       1.755006822869e-10       1.633829665989e-11      -1.428398780636e-14 
   37       1.949081691865e-10       1.194418952427e-14       3.723993182280e-13       0.000000000000e+00       1.671507880668e-10       1.559941234816e-11      -1.402258376529e-14 
   38       1.986657789419e-10       1.310439163838e-14       3.641504746825e-13       0.000000000000e+00       1.593622647148e-10       1.489822044161e-11      -1.360380716095e-14 
   39       2.024709576054e-10       1.433820025221e-14       3.536301779570e-13       0.000000000000e+00       1.521155869237e-10       1.423880082581e-11      -1.314277896073e-14 
   40       2.063253413365e-10       1.564749893104e-14       3.407743031159e-13       0.000000000000e+00       1.453483005693e-10       1.362286789020e-11      -1.278073153763e-14 
   41       2.102271669555e-10       1.703410789532e-14       3.255206580156e-13       0.000000000000e+00       1.389780948491e-10       1.304982821130e-11      -1.264618635021e-14 
   42       2.141773282023e-10       1.849988939852e-14       3.077959374114e-13       0.000000000000e+00       1.329901628654e-10       1.251756073842e-11      -1.271935767098e-14 
   43       2.181743666398e-10       2.004666490486e-14       2.875249707332e-13       0.000000000000e+00       1.273719005836e-10       1.202148129913e-11      -1.292635918236e-14 
   44       2.222122883313e-10       2.167618032809e-14       2.646342766965e-13       0.000000000000e+00       1.220865912035e-10       1.155404524038e-11      -1.317472549416e-14 
   45       2.262840072540e-10       2.339008933409e-14       2.390529210301e-13       0.000000000000e+00       1.170874134709e-10       1.110706529477e-11      -1.337512907993e-14 
   46       2.303938826294e-10       2.518990843778e-14       2.107154031513e-13       0.000000000000e+00       1.123690400851e-10       1.068001583319e-11      -1.351697723202e-14 
   47       2.345482227145e-10       2.707704043934e-14       1.795596269297e-13       0.000000000000e+00       1.079281595299e-10       1.027383277622e-11      -1.361346378652e-14 
   48       2.387515627450e-10       2.905277995128e-14       1.455261597241e-13       0.000000000000e+00       1.037478656109e-10       9.888514541654e-12      -1.368083178707e-14 
   49       2.430064715282e-10       3.111830798106e-14       1.085582786979e-13       0.000000000000e+00       9.979663281321e-11       9.523045847362e-12      -1.373854283364e-14 
   50       2.473139125652e-10       3.327472804720e-14       6.860005883381e-14       0.000000000000e+00       9.603829995585e-11       9.175902494445e-12      -1.380460008162e-14 
   51       2.516748916852e-10       3.552319865315e-14       2.558991768975e-14       0.000000000000e+00       9.246759309552e-11       8.846904024448e-12      -1.387962770985e-14 
   52       2.560889223258e-10       3.786482740768e-14      -2.053460150111e-14       0.000000000000e+00       8.908247375635e-11       8.535732233613e-12      -1.395876273390e-14 
   53       2.605533467484e-10       4.030062925343e-14      -6.983506942617e-14       0.000000000000e+00       8.587347879001e-11       8.241346447199e-12      -1.403606633610e-14 
   54       2.650631687261e-10       4.283152300406e-14      -1.223722165333e-13       0.000000000000e+00       8.282321377077e-11       7.961934662613e-12      -1.410446515088e-14 
   55       2.696131658609e-10       4.545831386469e-14      -1.781999069024e-13       0.000000000000e+00       7.991197882589e-11       7.695461622888e-12      -1.415755329274e-14 
   56       2.742052243237e-10       4.818164384147e-14      -2.373452017879e-13       0.000000000000e+00       7.713744331774e-11       7.441584403302e-12      -1.419565717700e-14 
   57       2.788425331612e-10       5.100202294718e-14      -2.998234237251e-13       0.000000000000e+00       7.449897141684e-11       7.200127120965e-12      -1.422117448724e-14 
   58       2.835273875211e-10       5.391983821686e-14      -3.656436079987e-13       0.000000000000e+00       7.199165603680e-11       6.970500654902e-12      -1.423685891618e-14 
   59       2.882611101571e-10       5.693534969882e-14      -4.348083119130e-13       0.000000000000e+00       6.960605115548e-11       6.751677046214e-12      -1.424583394733e-14 
   60       2.930439729336e-10       6.004868644566e-14      -5.073134240617e-13       0.000000000000e+00       6.732790413621e-11       6.542163898237e-12      -1.425160663679e-14 
   61       2.978758668740e-10       6.325983826651e-14      -5.831540051040e-13       0.000000000000e+00       6.514230386421e-11       6.340439956532e-12      -1.425704878058e-14 
   62       3.027586656380e-10       6.656863788992e-14      -6.623437735888e-13       0.000000000000e+00       6.304781876048e-11       6.146434013721e-12      -1.426104200361e-14 
   63       3.076942556750e-10       6.997476766502e-14      -7.448996753838e-13       0.000000000000e+00       6.104507163829e-11       5.960334044067e-12      -1.426110065380e-14 
   64       3.126837808330e-10       7.347775938560e-14      -8.308362387540e-13       0.000000000000e+00       5.913247887564e-11       5.782144566359e-12      -1.425431935976e-14 
   65       3.177275876137e-10       7.707699014665e-14      -9.201655750069e-13       0.000000000000e+00       5.730612284692e-11       5.611675676959e-12      -1.423735404852e-14 
   66       3.228251704280e-10       8.077167820088e-14      -1.012897379137e-12       0.000000000000e+00       5.555962435454e-11       5.448532082850e-12      -1.420640296317e-14 
   67       3.279751168514e-10       8.456087881527e-14      -1.109038930471e-12       0.000000000000e+00       5.388401506062e-11       5.292102134683e-12      -1.415718768047e-14 
   68       3.331759110015e-10       8.844355727564e-14      -1.208593019686e-12       0.000000000000e+00       5.227024472919e-11       5.141738184258e-12      -1.408633188623e-14 
   69       3.384286550705e-10       9.241883433990e-14      -1.311551240660e-12       0.000000000000e+00       5.071757804491e-11       4.997364608383e-12      -1.399586455017e-14 
   70       3.437348034354e-10       9.648578330509e-14      -1.417899334285e-12       0.000000000000e+00       4.922667785897e-11       4.858973851215e-12      -1.388959930451e-14 
   71       3.490953211179e-10       1.006433551284e-13      -1.527619090381e-12       0.000000000000e+00       4.779706181620e-11       4.726440035806e-12      -1.377183388584e-14 
   72       3.545106509868e-10       1.048903762569e-13      -1.640688295309e-12       0.000000000000e+00       4.642704217317e-11       4.599512890358e-12      -1.364736690105e-14 
   73       3.599806809602e-10       1.092255464571e-13      -1.757080679577e-12       0.000000000000e+00       4.511366561630e-11       4.477811674478e-12      -1.352151459327e-14 
   74       3.655047112078e-10       1.136474366443e-13      -1.876765865454e-12       0.000000000000e+00       4.385265307996e-11       4.360819105439e-12      -1.340012760778e-14 
   75       3.710814213532e-10       1.181544867129e-13      -1.999709314584e-12       0.000000000000e+00       4.263833956463e-11       4.247875284430e-12      -1.328960775795e-14 
   76       3.767094713037e-10       1.227450119620e-13      -2.125874402378e-12       0.000000000000e+00       4.146514331773e-11       4.138350185455e-12      -1.319534970109e-14 
   77       3.823895027325e-10       1.274172285256e-13      -2.255229193753e-12       0.000000000000e+00       4.033241571114e-11       4.032210861636e-12      -1.311670083631e-14 
   78       3.881224446852e-10       1.321692286585e-13      -2.387740813540e-12       0.000000000000e+00       3.924037053285e-11       3.929547117498e-12      -1.305110850991e-14 
   79       3.939088928466e-10       1.369989705887e-13      -2.523373420681e-12       0.000000000000e+00       3.818860472785e-11       3.830399749112e-12      -1.299559828840e-14 
   80       3.997490897357e-10       1.419042765239e-13      -2.662088199449e-12       0.000000000000e+00       3.717606957707e-11       3.734758131926e-12      -1.294675842589e-14 
   81       4.056429049012e-10       1.468828306569e-13      -2.803843350666e-12       0.000000000000e+00       3.620104187634e-11       3.642557808591e-12      -1.290072433153e-14 
   82       4.115898151166e-10       1.519321771721e-13      -2.948594082935e-12       0.000000000000e+00       3.526109511527e-11       3.553678076789e-12      -1.285316303694e-14 
   83       4.175888845758e-10       1.570497182506e-13      -3.096292603853e-12       0.000000000000e+00       3.435307065626e-11       3.467939577060e-12      -1.279925766366e-14 
   84       4.236391549137e-10       1.622327703384e-13      -3.246887949501e-12       0.000000000000e+00       3.347388406801e-11       3.385153857081e-12      -1.273489328790e-14 
   85       4.297409329414e-10       1.674787480343e-13      -3.400325459645e-12       0.000000000000e+00       3.262316084549e-11       3.305286789118e-12      -1.266047443776e-14 
   86       4.358946810720e-10       1.727850071722e-13      -3.556547199034e-12       0.000000000000e+00       3.180098682611e-11       3.228317947086e-12      -1.257771492046e-14 
   87       4.421006137490e-10       1.781487882697e-13      -3.715492100079e-12       0.000000000000e+00       3.100709731771e-11       3.154189522872e-12      -1.248849728381e-14 
   88       4.483586845295e-10       1.835672155140e-13      -3.877095951357e-12       0.000000000000e+00       3.024086231368e-11       3.082804787723e-12      -1.239487747520e-14 
   89       4.546685731670e-10       1.890372957460e-13      -4.041291386114e-12       0.000000000000e+00       2.950127170812e-11       3.014026553620e-12      -1.229908950057e-14 
   90       4.610296726952e-10       1.945559174461e-13      -4.208007870770e-12       0.000000000000e+00       2.878692051099e-11       2.947675634662e-12      -1.220355008337e-14 
   91       4.674410765103e-10       2.001198497192e-13      -4.377171693423e-12       0.000000000000e+00       2.809599406326e-11       2.883529308450e-12      -1.211086332360e-14 
   92       4.739015654545e-10       2.057257412793e-13      -4.548705952355e-12       0.000000000000e+00       2.742625325204e-11       2.821319777468e-12      -1.202382535676e-14 
   93       4.804099289675e-10       2.113701834164e-13      -4.722531893712e-12       0.000000000000e+00       2.677558983726e-11       2.760797963132e-12      -1.194478690287e-14 
   94       4.869660118471e-10       2.170499119322e-13      -4.898573179665e-12       0.000000000000e+00       2.614382008493e-11       2.701939205218e-12      -1.187362112515e-14 
   95       4.935698017720e-10       2.227616338400e-13      -5.076752243917e-12       0.000000000000e+00       2.553113481598e-11       2.644765798843e-12      -1.180945732902e-14 
   96       5.002211010413e-10       2.285019659550e-13      -5.256989006648e-12       0.000000000000e+00       2.493754646532e-11       2.589283785159e-12      -1.175129173997e-14 
   97       5.069195182438e-10       2.342674347578e-13      -5.439200881538e-12       0.000000000000e+00       2.436288212283e-11       2.535482309540e-12      -1.169798334837e-14 
   98       5.136644599262e-10       2.400544762576e-13      -5.623302782798e-12       0.000000000000e+00       2.380677657434e-11       2.483332979777e-12      -1.164824975437e-14 
   99       5.204551222625e-10       2.458594358557e-13      -5.809207132188e-12       0.000000000000e+00       2.326866534259e-11       2.432789224272e-12      -1.160066301271e-14 
  100       5.272904827224e-10       2.516785682087e-13      -5.996823866041e-12       0.000000000000e+00       2.274777772825e-11       2.383785650227e-12      -1.155364547757e-14 
  101       5.341692917403e-10       2.575080370917e-13      -6.186060442293e-12       0.000000000000e+00       2.224312985082e-11       2.336237401839e-12      -1.150546564742e-14 
  102       5.410900643839e-10       2.633439152623e-13      -6.376821847502e-12       0.000000000000e+00       2.175351768967e-11       2.290039518492e-12      -1.145423400987e-14 
  103       5.480510720234e-10       2.691821843231e-13      -6.569010603875e-12       0.000000000000e+00       2.127751012498e-11       2.245066292949e-12      -1.139789888651e-14 
  104       5.550506432402e-10       2.750188169909e-13      -6.762528150837e-12       0.000000000000e+00       2.081378694641e-11       2.201202098440e-12      -1.133472648442e-14 
  105       5.620881307925e-10       2.808500368526e-13      -6.957279187173e-12       0.000000000000e+00       2.036221986908e-11       2.158439994915e-12      -1.126482385434e-14 
  106       5.691630603488e-10       2.866720936068e-13      -7.153167931274e-12       0.000000000000e+00       1.992292525325e-11       2.116795308552e-12      -1.118881487327e-14 
  107       5.762748280395e-10       2.924811845521e-13      -7.350096820829e-12       0.000000000000e+00       1.949592904698e-11       2.076275059923e-12      -1.110737556092e-14 
