# dimensionless total lensed [l(l+1)/2pi] C_l's
# for l=2 to 2500, i.e. number of multipoles equal to 2499
#
# -> if you prefer output in CAMB/HealPix/LensPix units/order, set 'format' to 'camb' in input file
# -> if you don't want to see such a header, set 'headers' to 'no' in input file
# -> for CMB lensing (phi), these are C_l^phi-phi for the lensing potential.
#    Remember the conversion factors:
#    C_l^dd (deflection) = l(l+1) C_l^phi-phi
#    C_l^gg (shear/convergence) = 1/4 (l(l+1))^2 C_l^phi-phi
#
# 1:l     2:TT                     3:EE                     4:TE                     5:BB                     6:phiphi                 7:TPhi                   8:Ephi               
    2       1.254266137464e-09       6.331486785617e-15       2.233856563419e-12       3.343316524352e-19       8.815086785924e-09       2.487183363933e-11      -2.274482845970e-12 
    3       1.217992708292e-09       8.111085004035e-15       2.445908920516e-12       6.687476189091e-19       5.643536263733e-09       8.077407090404e-11      -1.723514029978e-12 
    4       1.166203071884e-09       6.991540929845e-15       2.286048988739e-12       1.114766309081e-18       4.004588450107e-09       8.594957393297e-11      -1.128298088657e-12 
    5       1.112660552918e-09       4.624777266973e-15       1.942555531167e-12       1.672498937865e-18       3.036099817691e-09       7.920102192120e-11      -6.242567351261e-13 
    6       1.061231819504e-09       2.547560851526e-15       1.531393092416e-12       2.342083399567e-18       2.403955927732e-09       7.019540357972e-11      -2.497308553052e-13 
    7       1.013260997195e-09       1.364059715228e-15       1.128378382095e-12       3.123683415825e-18       1.961467200605e-09       6.140348903824e-11      -8.318263024893e-15 
    8       9.688882487940e-10       9.042872033213e-16       7.759039638219e-13       4.017487421473e-18       1.636602246987e-09       5.359923248543e-11       1.163905401321e-13 
    9       9.278372596139e-10       7.619947750389e-16       4.937022254805e-13       5.023707151395e-18       1.390429719681e-09       4.694171410924e-11       1.514261026286e-13 
   10       8.900896445700e-10       6.686855679534e-16       2.864227086433e-13       6.142575895135e-18       1.199403454495e-09       4.130603476014e-11       1.276994649141e-13 
   11       8.553423019832e-10       5.637149216124e-16       1.490923152178e-13       7.374346393204e-18       9.994760747448e-10       3.489694254273e-11       7.457157614788e-14 
   12       8.233102039173e-10       4.854889066346e-16       7.141773136657e-14       8.719288359506e-18       8.792329415776e-10       3.186455043419e-11       1.617753769564e-14 
   13       7.937852463588e-10       4.590033927408e-16       4.114597887696e-14       1.017768562774e-17       7.805596404597e-10       2.626801005705e-11      -3.262218865332e-14 
   14       7.665276129621e-10       4.638369725879e-16       4.588579262116e-14       1.174983293540e-17       6.975415946744e-10       2.454410592998e-11      -6.243217988333e-14 
   15       7.413015179348e-10       4.641437571771e-16       7.413303301680e-14       1.343603237652e-17       6.274540930060e-10       2.220841869531e-11      -7.302408794641e-14 
   16       7.179736451112e-10       4.438728011719e-16       1.162788269618e-13       1.523658957252e-17       5.680126498732e-10       1.713197062401e-11      -6.904486560483e-14 
   17       6.963985937947e-10       4.136835855680e-16       1.646815657493e-13       1.715180962856e-17       5.162645975170e-10       1.613244328527e-11      -5.392540139385e-14 
   18       6.764228772920e-10       3.965074018087e-16       2.133521060753e-13       1.918199312829e-17       4.711483496637e-10       1.524375817879e-11      -3.556097669987e-14 
   19       6.581346579548e-10       4.038302521874e-16       2.587877094426e-13       2.132743108917e-17       4.321640634354e-10       1.348320224422e-11      -1.863307255185e-14 
   20       6.411050095631e-10       4.411499732646e-16       2.981779754933e-13       2.358840257319e-17       3.976506606732e-10       1.203294412816e-11      -6.442449762772e-15 
   21       6.253796598985e-10       5.039564088964e-16       3.301769033907e-13       2.596516882220e-17       3.670979644560e-10       1.091772448355e-11       3.275591820981e-16 
   22       6.108260860260e-10       5.832940983810e-16       3.543289583190e-13       2.845797104606e-17       3.398700764651e-10       9.779351897791e-12       2.326091350650e-15 
   23       5.974212007872e-10       6.764710738485e-16       3.709624179578e-13       3.106702645171e-17       3.156168151279e-10       8.642719700520e-12       9.925494298878e-16 
   24       5.849618380233e-10       7.825156140110e-16       3.810632967896e-13       3.379252594198e-17       2.937831100197e-10       7.628508761610e-12      -1.730166229311e-15 
   25       5.734495541330e-10       9.014314228161e-16       3.857190345762e-13       3.663463297952e-17       2.741387598126e-10       6.663091870329e-12      -4.749227709768e-15 
   26       5.627910158830e-10       1.033442294107e-15       3.863931358175e-13       3.959348046377e-17       2.563575802712e-10       5.651960674219e-12      -7.202245504999e-15 
   27       5.529303657816e-10       1.178916718610e-15       3.846524617889e-13       4.266917181223e-17       2.402166093449e-10       4.809797413612e-12      -8.763468208956e-15 
   28       5.437290047240e-10       1.338285724481e-15       3.822121591307e-13       4.586177921686e-17       2.254221172720e-10       4.396361947960e-12      -9.386855588771e-15 
   29       5.352120208384e-10       1.512315778967e-15       3.801034768078e-13       4.917135421590e-17       2.119231945448e-10       4.270598998288e-12      -9.563698087490e-15 
   30       5.273363543779e-10       1.701902805542e-15       3.792640369896e-13       5.259791647618e-17       1.996198370604e-10       4.105612928879e-12      -1.010058530579e-14 
   31       5.199584581309e-10       1.907876308708e-15       3.805649054410e-13       5.614145592043e-17       1.883060145726e-10       3.591382239004e-12      -1.172010353234e-14 
   32       5.130817556216e-10       2.130609118477e-15       3.840347163425e-13       5.980195926957e-17       1.779176164203e-10       2.842648783147e-12      -1.396062059207e-14 
   33       5.066791155203e-10       2.370247634792e-15       3.893237276050e-13       6.357939061447e-17       1.683558306473e-10       2.148368482442e-12      -1.584605029330e-14 
   34       5.006605063207e-10       2.626990116604e-15       3.958947986547e-13       6.747369272839e-17       1.594639475362e-10       1.781377261267e-12      -1.641615914515e-14 
   35       4.950234134716e-10       2.901740519820e-15       4.030529641335e-13       7.148482059215e-17       1.512074661734e-10       1.684269326210e-12      -1.564499754617e-14 
   36       4.897409053587e-10       3.195688856478e-15       4.098973908900e-13       7.561271832753e-17       1.435451280043e-10       1.671496413057e-12      -1.384612131358e-14 
   37       4.847489948180e-10       3.510012357164e-15       4.154793707123e-13       7.985732270226e-17       1.364028926078e-10       1.558333212754e-12      -1.140939512411e-14 
   38       4.800639192336e-10       3.845413793033e-15       4.194284608923e-13       8.421860719258e-17       1.297668256689e-10       1.331563709233e-12      -8.700587324060e-15 
   39       4.756946470803e-10       4.202431299939e-15       4.215221675211e-13       8.869655282846e-17       1.236138744410e-10       1.033954347839e-12      -6.139241829635e-15 
   40       4.716060223867e-10       4.581557419803e-15       4.215168773649e-13       9.329113714456e-17       1.178827315902e-10       7.195041167029e-13      -4.232464347571e-15 
   41       4.677403727847e-10       4.983268448722e-15       4.192312885171e-13       9.800234569545e-17       1.124951233520e-10       4.418663844965e-13      -3.433623816218e-15 
   42       4.641010502936e-10       5.408132550297e-15       4.148319439647e-13       1.028302096840e-16       1.074360248709e-10       2.133045579231e-13      -3.650299929954e-15 
   43       4.606889044270e-10       5.856730830272e-15       4.086388443852e-13       1.077747815808e-16       1.026939449561e-10       3.361917892468e-14      -4.585143389870e-15 
   44       4.574763121766e-10       6.329626175496e-15       4.010536189784e-13       1.128361265782e-16       9.823694510497e-11      -9.879368217674e-14      -5.864034070898e-15 
   45       4.544233616869e-10       6.827349463067e-15       3.924872314319e-13       1.180143212461e-16       9.402479693173e-11      -1.883363107524e-13      -7.109383682707e-15 
   46       4.515380392190e-10       7.350356366152e-15       3.831061581993e-13       1.233094458352e-16       9.005365683074e-11      -2.466285595081e-13      -8.197367972306e-15 
   47       4.488298010901e-10       7.899055400734e-15       3.730183879606e-13       1.287215919702e-16       8.632195503327e-11      -2.895970314369e-13      -9.069518318426e-15 
   48       4.462910853556e-10       8.473817302821e-15       3.623441606812e-13       1.342508663093e-16       8.281693137471e-11      -3.364851844592e-13      -9.661098777324e-15 
   49       4.438958977777e-10       9.074972996498e-15       3.512162697592e-13       1.398973917400e-16       7.951378849614e-11      -4.100373326505e-13      -9.900852015556e-15 
   50       4.416117871243e-10       9.702839311749e-15       3.397372727746e-13       1.456612881798e-16       7.638332738048e-11      -5.291474078446e-13      -9.739560400938e-15 
   51       4.394428837135e-10       1.035780908176e-14       3.278367301945e-13       1.515426060639e-16       7.341926190508e-11      -6.840259653099e-13      -9.245458260465e-15 
   52       4.373960989558e-10       1.104028198917e-14       3.153757380088e-13       1.575413768697e-16       7.061685477258e-11      -8.546105998785e-13      -8.534279030491e-15 
   53       4.354679917209e-10       1.175063824489e-14       3.021849475245e-13       1.636576321632e-16       6.796464617483e-11      -1.017345498092e-12      -7.743779451054e-15 
   54       4.336439843931e-10       1.248923786203e-14       2.880628396829e-13       1.698914038346e-16       6.544400616312e-11      -1.145010839917e-12      -7.034841506099e-15 
   55       4.319060808877e-10       1.325645804432e-14       2.728116905166e-13       1.762426936704e-16       6.303486704164e-11      -1.214020683046e-12      -6.554117472676e-15 
   56       4.302600618898e-10       1.405281789136e-14       2.563598835837e-13       1.827113726782e-16       6.073561363250e-11      -1.228830461853e-12      -6.308573728876e-15 
   57       4.287136723556e-10       1.487888340107e-14       2.386669598984e-13       1.892972571650e-16       5.854735012084e-11      -1.203294018868e-12      -6.261711069327e-15 
   58       4.272682686125e-10       1.573523281176e-14       2.196883373433e-13       1.960001362709e-16       5.646795059912e-11      -1.153844117123e-12      -6.368903267226e-15 
   59       4.259183656594e-10       1.662245736108e-14       1.993750534722e-13       2.028197710102e-16       5.449185221746e-11      -1.099612821714e-12      -6.577000694132e-15 
   60       4.246511844671e-10       1.754116204489e-14       1.776735083130e-13       2.097558933127e-16       5.260984833404e-11      -1.062551881351e-12      -6.823933939761e-15 
   61       4.234524814573e-10       1.849181201400e-14       1.545422997784e-13       2.168081975341e-16       5.081183808295e-11      -1.062008184188e-12      -7.051784296331e-15 
   62       4.223265901253e-10       1.947422975806e-14       1.300077275992e-13       2.239763149332e-16       4.909626423114e-11      -1.096754955432e-12      -7.250320264375e-15 
   63       4.212800951236e-10       2.048798589226e-14       1.041203481419e-13       2.312598317380e-16       4.746243633233e-11      -1.159122532949e-12      -7.422574372499e-15 
   64       4.203156986916e-10       2.153253950337e-14       7.693926064899e-14       2.386582949961e-16       4.590765043788e-11      -1.240132933381e-12      -7.572268934462e-15 
   65       4.194319672845e-10       2.260723401086e-14       4.853239237790e-14       2.461712113765e-16       4.442707605200e-11      -1.329444297402e-12      -7.703846962398e-15 
   66       4.186230782023e-10       2.371129302800e-14       1.897678373897e-14       2.537980459714e-16       4.301364308701e-11      -1.415295334974e-12      -7.822503080032e-15 
   67       4.178785662188e-10       2.484381622298e-14      -1.164112656601e-14       2.615382210988e-16       4.165792881859e-11      -1.484449770604e-12      -7.934214435904e-15 
   68       4.171877256071e-10       2.600398682312e-14      -4.324745832776e-14       2.693911711496e-16       4.035068123610e-11      -1.525393474333e-12      -8.043348926919e-15 
   69       4.165544183465e-10       2.719175220378e-14      -7.585256385167e-14       2.773565227123e-16       3.909123551156e-11      -1.538802302001e-12      -8.144857997926e-15 
   70       4.159848250677e-10       2.840727440301e-14      -1.094934314722e-13       2.854339489622e-16       3.788060768600e-11      -1.529105259501e-12      -8.230550163233e-15 
   71       4.154829232431e-10       2.965073193135e-14      -1.442130072451e-13       2.936231170762e-16       3.671896436738e-11      -1.501446626204e-12      -8.291343235037e-15 
   72       4.150503528790e-10       3.092232104585e-14      -1.800604786564e-13       3.019236884686e-16       3.560557711273e-11      -1.461713589108e-12      -8.317233275274e-15 
   73       4.146862822091e-10       3.222225702396e-14      -2.170915583309e-13       3.103353190261e-16       3.453877681042e-11      -1.416563876989e-12      -8.297263547468e-15 
   74       4.143872733869e-10       3.355077543760e-14      -2.553687677410e-13       3.188576593435e-16       3.351590806236e-11      -1.373453394553e-12      -8.219493468576e-15 
   75       4.141471481784e-10       3.490813342706e-14      -2.949617209154e-13       3.274903549592e-16       3.253328356624e-11      -1.340663856582e-12      -8.070967560838e-15 
   76       4.139596003245e-10       3.629447186392e-14      -3.359296317551e-13       3.362331030315e-16       3.158714680937e-11      -1.325342745398e-12      -7.842014597313e-15 
   77       4.138268794870e-10       3.770937000524e-14      -3.782645261655e-13       3.450858337811e-16       3.067686366186e-11      -1.327149456699e-12      -7.540118754528e-15 
   78       4.137524542101e-10       3.915221156565e-14      -4.219381417121e-13       3.540485627170e-16       2.980223261153e-11      -1.343495320319e-12      -7.178533275127e-15 
   79       4.137383290121e-10       4.062231507085e-14      -4.669187058292e-13       3.631213385008e-16       2.896250354602e-11      -1.371415575531e-12      -6.772231485382e-15 
   80       4.137849664011e-10       4.211893227892e-14      -5.131708550094e-13       3.723042443396e-16       2.815635281125e-11      -1.407556246275e-12      -6.337964541168e-15 
   81       4.138912088902e-10       4.364124660182e-14      -5.606555539925e-13       3.815973993785e-16       2.738185826986e-11      -1.448161016386e-12      -5.894319173946e-15 
   82       4.140542010132e-10       4.518837152668e-14      -6.093300149553e-13       3.910009600939e-16       2.663647435974e-11      -1.489058104828e-12      -5.461775436736e-15 
   83       4.142693113400e-10       4.675934903724e-14      -6.591476167008e-13       4.005151216858e-16       2.591700715245e-11      -1.525647140917e-12      -5.062764450091e-15 
   84       4.145320140265e-10       4.835323177115e-14      -7.100652231995e-13       4.101400704676e-16       2.522039724620e-11      -1.553925115492e-12      -4.716630871960e-15 
   85       4.148440626775e-10       4.996934859882e-14      -7.620667102350e-13       4.198758289149e-16       2.454627220115e-11      -1.573788403172e-12      -4.423434286506e-15 
   86       4.152082017574e-10       5.160708038231e-14      -8.151432089497e-13       4.297223873635e-16       2.389477348215e-11      -1.586256626987e-12      -4.177555817376e-15 
   87       4.156262536692e-10       5.326577998521e-14      -8.692860961731e-13       4.396797512891e-16       2.326577504921e-11      -1.592486527761e-12      -3.972527164459e-15 
   88       4.160990737038e-10       5.494477210132e-14      -9.244870379703e-13       4.497479418767e-16       2.265887199301e-11      -1.593776302803e-12      -3.801002714966e-15 
   89       4.166265049882e-10       5.664335308336e-14      -9.807380331904e-13       4.599269965898e-16       2.207336917047e-11      -1.591569944600e-12      -3.654731654514e-15 
   90       4.172073334347e-10       5.836079077174e-14      -1.038031457014e-12       4.702169697398e-16       2.150826984019e-11      -1.587461579506e-12      -3.524530078214e-15 
   91       4.178392426897e-10       6.009632432322e-14      -1.096360104503e-12       4.806179330547e-16       2.096226429805e-11      -1.583199806431e-12      -3.400253101754e-15 
   92       4.185187690828e-10       6.184916403964e-14      -1.155717234147e-12       4.911299762489e-16       2.043371851268e-11      -1.580692035534e-12      -3.270766972482e-15 
   93       4.192426669485e-10       6.361848651395e-14      -1.216093551071e-12       5.017531548089e-16       1.992107947904e-11      -1.581565316488e-12      -3.126519472385e-15 
   94       4.200123373406e-10       6.540341960528e-14      -1.277467543052e-12       5.124873231326e-16       1.942418570144e-11      -1.585763843033e-12      -2.967753922826e-15 
   95       4.208299852013e-10       6.720305487688e-14      -1.339813764794e-12       5.233322772298e-16       1.894313371258e-11      -1.592747553319e-12      -2.797484751218e-15 
   96       4.216972429897e-10       6.901645184511e-14      -1.403105770277e-12       5.342878051158e-16       1.847787334857e-11      -1.601915119705e-12      -2.619016947709e-15 
   97       4.226151449907e-10       7.084263774385e-14      -1.467316114300e-12       5.453536866566e-16       1.802820210473e-11      -1.612602199460e-12      -2.435953842593e-15 
   98       4.235841016237e-10       7.268060728892e-14      -1.532416354018e-12       5.565296934131e-16       1.759375949127e-11      -1.624079685452e-12      -2.252204883726e-15 
   99       4.246038737516e-10       7.452932244255e-14      -1.598377050486e-12       5.678155884859e-16       1.717402138908e-11      -1.635551956848e-12      -2.071993413932e-15 
  100       4.256735469896e-10       7.638771217781e-14      -1.665167770192e-12       5.792111263601e-16       1.676829440542e-11      -1.646155129811e-12      -1.899864448414e-15 
  101       4.267915060137e-10       7.825467224302e-14      -1.732757086601e-12       5.907160527498e-16       1.637571022973e-11      -1.654955308188e-12      -1.740692452167e-15 
  102       4.279554088700e-10       8.012906492621e-14      -1.801112581693e-12       6.023301044428e-16       1.599521998930e-11      -1.660946834214e-12      -1.599689117390e-15 
  103       4.291621612831e-10       8.200971881957e-14      -1.870200847502e-12       6.140530091453e-16       1.562558860506e-11      -1.663050539205e-12      -1.482411140893e-15 
  104       4.304089456322e-10       8.389545714669e-14      -1.939988208343e-12       6.258845916581e-16       1.526568238760e-11      -1.660397778214e-12      -1.393498470995e-15 
  105       4.316965215176e-10       8.578518760984e-14      -2.010442995281e-12       6.378251090752e-16       1.491538822771e-11      -1.653229999392e-12      -1.332678181008e-15 
  106       4.330263252327e-10       8.767782429713e-14      -2.081533583209e-12       6.498749607868e-16       1.457480863061e-11      -1.642117997838e-12      -1.298232763612e-15 
  107       4.343994409796e-10       8.957226028082e-14      -2.153227706946e-12       6.620345871924e-16       1.424397717119e-11      -1.627688357483e-12      -1.288215357344e-15 
