# dimensionless total [l(l+1)/2pi] C_l's
# for l=2 to 3000, i.e. number of multipoles equal to 2999
#
# -> if you prefer output in CAMB/HealPix/LensPix units/order, set 'format' to 'camb' in input file
# -> if you don't want to see such a header, set 'headers' to 'no' in input file
# -> for CMB lensing (phi), these are C_l^phi-phi for the lensing potential.
#    Remember the conversion factors:
#    C_l^dd (deflection) = l(l+1) C_l^phi-phi
#    C_l^gg (shear/convergence) = 1/4 (l(l+1))^2 C_l^phi-phi
#
# 1:l     2:TT                     3:EE                     4:TE                     5:BB                     6:phiphi                 7:TPhi                   8:Ephi               
    2       1.353685739290e-10       8.249253980947e-16       1.541000579858e-13       0.000000000000e+00       7.222263780059e-09       4.085668397669e-10      -8.070570506288e-13 
    3       1.293905993971e-10       1.069315497836e-15       1.733683373392e-13       0.000000000000e+00       4.379308166688e-09       2.839225408688e-10      -6.080707028945e-13 
    4       1.237565555346e-10       9.407143784135e-16       1.636229819151e-13       0.000000000000e+00       2.996794117759e-09       2.115390232026e-10      -3.945825190554e-13 
    5       1.196612470639e-10       6.487433156362e-16       1.432298514126e-13       0.000000000000e+00       2.205605679568e-09       1.648968839320e-10      -2.147042275451e-13 
    6       1.169535782620e-10       3.905873804267e-16       1.219013517289e-13       0.000000000000e+00       1.700466085216e-09       1.326771749034e-10      -8.163352432603e-14 
    7       1.153125847371e-10       2.441497119264e-16       1.045522300202e-13       0.000000000000e+00       1.354957221614e-09       1.093596227713e-10       3.807067974065e-15 
    8       1.145264284017e-10       1.878482942314e-16       9.274478808302e-14       0.000000000000e+00       1.107150745825e-09       9.189309395633e-11       4.783378276797e-14 
    9       1.143271565988e-10       1.698730585257e-16       8.634492569315e-14       0.000000000000e+00       9.228223957311e-10       7.842695875693e-11       6.031250765898e-14 
   10       1.146256166470e-10       1.567465612214e-16       8.448429003076e-14       0.000000000000e+00       7.815032756391e-10       6.780058909296e-11       5.233363721854e-14 
   11       1.153128182900e-10       1.426188509503e-16       8.607170150009e-14       0.000000000000e+00       6.590231372302e-10       5.982753215932e-11       3.440797899663e-14 
   12       1.162521284309e-10       1.352310550899e-16       9.013458465987e-14       0.000000000000e+00       5.712953976886e-10       5.266908107220e-11       1.450336448781e-14 
   13       1.174848611422e-10       1.410498646105e-16       9.591286028497e-14       0.000000000000e+00       4.997347379410e-10       4.671592261240e-11      -1.860825126294e-15 
   14       1.189210572032e-10       1.604811599445e-16       1.027800429524e-13       0.000000000000e+00       4.405729739117e-10       4.183194362568e-11      -1.198016407486e-14 
   15       1.205169211141e-10       1.909365444354e-16       1.103637159802e-13       0.000000000000e+00       3.910842863924e-10       3.759776299496e-11      -1.590525017642e-14 
   16       1.222803483054e-10       2.307770975347e-16       1.184250786686e-13       0.000000000000e+00       3.492533160229e-10       3.395497322713e-11      -1.492448863568e-14 
   17       1.241607215390e-10       2.804189690310e-16       1.267838188344e-13       0.000000000000e+00       3.135747349153e-10       3.082299762989e-11      -1.109878967407e-14 
   18       1.261639729306e-10       3.410656577691e-16       1.354056167977e-13       0.000000000000e+00       2.827813652493e-10       2.809965690737e-11      -6.669130555669e-15 
   19       1.282995354770e-10       4.132074243905e-16       1.442293962142e-13       0.000000000000e+00       2.563310331425e-10       2.575131914063e-11      -3.016021835409e-15 
   20       1.305146249071e-10       4.968855802891e-16       1.531465165769e-13       0.000000000000e+00       2.331585801433e-10       2.369774102331e-11      -1.244013643089e-15 
   21       1.328202318541e-10       5.924942092507e-16       1.621079652529e-13       0.000000000000e+00       2.128675767201e-10       2.188388771652e-11      -1.369122751957e-15 
   22       1.352144766565e-10       7.005377903453e-16       1.710544445615e-13       0.000000000000e+00       1.949412568422e-10       2.023778115087e-11      -2.866573590122e-15 
   23       1.376902932554e-10       8.219276844452e-16       1.798398471818e-13       0.000000000000e+00       1.791110481607e-10       1.876257396669e-11      -5.038287352833e-15 
   24       1.402205246776e-10       9.576802966987e-16       1.882821385563e-13       0.000000000000e+00       1.649890625327e-10       1.746547971563e-11      -7.046337374758e-15 
   25       1.428209027117e-10       1.108577114403e-15       1.962931337837e-13       0.000000000000e+00       1.523934840813e-10       1.632808158326e-11      -8.389302572372e-15 
   26       1.455016404799e-10       1.275329014362e-15       2.038067326821e-13       0.000000000000e+00       1.410809783587e-10       1.530886023174e-11      -8.740616970898e-15 
   27       1.482490900265e-10       1.458797327359e-15       2.107342071352e-13       0.000000000000e+00       1.309050443779e-10       1.437351965870e-11      -8.308287627118e-15 
   28       1.510341893680e-10       1.659886155947e-15       2.169844202233e-13       0.000000000000e+00       1.216796243182e-10       1.348702758705e-11      -7.502808341967e-15 
   29       1.538653213911e-10       1.879469976678e-15       2.225126803155e-13       0.000000000000e+00       1.133503133936e-10       1.265614085126e-11      -6.575634081627e-15 
   30       1.567518085222e-10       2.118408661022e-15       2.272943376178e-13       0.000000000000e+00       1.058198633014e-10       1.189730210592e-11      -5.776668765575e-15 
   31       1.596921749390e-10       2.377559651591e-15       2.313073915176e-13       0.000000000000e+00       9.892524165162e-11       1.122037769172e-11      -5.352320775664e-15 
   32       1.626884797963e-10       2.657801242278e-15       2.345091595693e-13       0.000000000000e+00       9.262614196741e-11       1.061905739080e-11      -5.303014964004e-15 
   33       1.657345666254e-10       2.960015453168e-15       2.368509369814e-13       0.000000000000e+00       8.687405448904e-11       1.007539559094e-11      -5.532477140621e-15 
   34       1.688170990583e-10       3.285087339747e-15       2.382833902241e-13       0.000000000000e+00       8.158361616229e-11       9.567588522179e-12      -5.917140045283e-15 
   35       1.719373891322e-10       3.633928179127e-15       2.387547842879e-13       0.000000000000e+00       7.672442140055e-11       9.091600204296e-12      -6.340373083836e-15 
   36       1.750954128932e-10       4.007458973463e-15       2.382118677258e-13       0.000000000000e+00       7.225398343892e-11       8.646329579768e-12      -6.666315149960e-15 
   37       1.782864151374e-10       4.406561868464e-15       2.366039800127e-13       0.000000000000e+00       6.811007464598e-11       8.228943025702e-12      -6.768574627798e-15 
   38       1.815120498588e-10       4.831936645406e-15       2.338961276631e-13       0.000000000000e+00       6.427992341789e-11       7.839422923770e-12      -6.666695667266e-15 
   39       1.847717159491e-10       5.284191778434e-15       2.300602990900e-13       0.000000000000e+00       6.074961185443e-11       7.477142942497e-12      -6.435045256951e-15 
   40       1.880587903635e-10       5.763877486805e-15       2.250721607490e-13       0.000000000000e+00       5.748309827319e-11       7.139415013197e-12      -6.167977768216e-15 
   41       1.913646785121e-10       6.271536040649e-15       2.189085895090e-13       0.000000000000e+00       5.443433346994e-11       6.822562256988e-12      -5.959908241225e-15 
   42       1.946940243582e-10       6.807882436478e-15       2.115389350036e-13       0.000000000000e+00       5.159295801148e-11       6.525999875424e-12      -5.834546061799e-15 
   43       1.980534202806e-10       7.373675492029e-15       2.029311709928e-13       0.000000000000e+00       4.895025681456e-11       6.249173223756e-12      -5.794854182513e-15 
   44       2.014468843390e-10       7.969667999151e-15       1.930542444981e-13       0.000000000000e+00       4.648547773280e-11       5.990319955417e-12      -5.842178493329e-15 
   45       2.048759099665e-10       8.596575755134e-15       1.818777873204e-13       0.000000000000e+00       4.417294860712e-11       5.747113765390e-12      -5.973012220718e-15 
   46       2.083403231526e-10       9.254974672237e-15       1.693712122295e-13       0.000000000000e+00       4.200820590736e-11       5.519054906063e-12      -6.168466784841e-15 
   47       2.118371831693e-10       9.945372145656e-15       1.555043000259e-13       0.000000000000e+00       3.998806042504e-11       5.305628469644e-12      -6.401414089150e-15 
   48       2.153601960107e-10       1.066823275498e-14       1.402473959011e-13       0.000000000000e+00       3.810273431285e-11       5.105571777975e-12      -6.638997799757e-15 
   49       2.188994411561e-10       1.142397605835e-14       1.235713670366e-13       0.000000000000e+00       3.633537505813e-11       4.916819560186e-12      -6.842314563009e-15 
   50       2.224450530261e-10       1.221298744171e-14       1.054484367126e-13       0.000000000000e+00       3.466698339134e-11       4.737126824298e-12      -6.976928338024e-15 
   51       2.260000773240e-10       1.303565925602e-14       8.585505191703e-14       0.000000000000e+00       3.309390152328e-11       4.566263978755e-12      -7.048517555939e-15 
   52       2.295706320969e-10       1.389235703331e-14       6.476972082388e-14       0.000000000000e+00       3.161423176565e-11       4.404322788042e-12      -7.076352944115e-15 
   53       2.331621729806e-10       1.478340585377e-14       4.217220318881e-14       0.000000000000e+00       3.022261171919e-11       4.251068368829e-12      -7.083496581908e-15 
   54       2.367794060665e-10       1.570908875429e-14       1.804350919571e-14       0.000000000000e+00       2.890998302062e-11       4.105916259105e-12      -7.096992911888e-15 
   55       2.404257608190e-10       1.666966885349e-14      -7.633871428809e-15       0.000000000000e+00       2.766626081473e-11       3.968128280694e-12      -7.141257134498e-15 
   56       2.441018551089e-10       1.766546580935e-14      -3.487521277788e-14       0.000000000000e+00       2.648964852398e-11       3.837509637482e-12      -7.215879426582e-15 
   57       2.478064962405e-10       1.869679556769e-14      -6.369412345727e-14       0.000000000000e+00       2.537923200968e-11       3.713844826152e-12      -7.312641385388e-15 
   58       2.515369854879e-10       1.976394765677e-14      -9.410275273713e-14       0.000000000000e+00       2.433216592022e-11       3.596679922391e-12      -7.421763135443e-15 
   59       2.552890138205e-10       2.086718451982e-14      -1.261117827340e-13       0.000000000000e+00       2.334355545323e-11       3.485308174450e-12      -7.531829302758e-15 
   60       2.590565576291e-10       2.200674084755e-14      -1.597304205926e-13       0.000000000000e+00       2.240633811776e-11       3.378755596697e-12      -7.629714989041e-15 
   61       2.628337948688e-10       2.318277609783e-14      -1.949654464288e-13       0.000000000000e+00       2.151319273819e-11       3.276050268166e-12      -7.703582825517e-15 
   62       2.666215919827e-10       2.439522111081e-14      -2.318181251241e-13       0.000000000000e+00       2.066303467683e-11       3.177133455510e-12      -7.752827715053e-15 
   63       2.704222946279e-10       2.564389572376e-14      -2.702865843222e-13       0.000000000000e+00       1.985577535363e-11       3.082128367607e-12      -7.780243092787e-15 
   64       2.742377963719e-10       2.692855043577e-14      -3.103666604710e-13       0.000000000000e+00       1.909037080734e-11       2.991069199395e-12      -7.789169773873e-15 
   65       2.780694985245e-10       2.824886425487e-14      -3.520518610447e-13       0.000000000000e+00       1.836476778053e-11       2.903895727172e-12      -7.783519370725e-15 
   66       2.819182699703e-10       2.960444254527e-14      -3.953333267656e-13       0.000000000000e+00       1.767584980465e-11       2.820447903899e-12      -7.767797710263e-15 
   67       2.857844070005e-10       3.099481487457e-14      -4.401997938261e-13       0.000000000000e+00       1.701938328508e-11       2.740460454496e-12      -7.747128251155e-15 
   68       2.896679815747e-10       3.241949784566e-14      -4.866398255197e-13       0.000000000000e+00       1.639111931983e-11       2.663647600496e-12      -7.726184370234e-15 
   69       2.935700578353e-10       3.387820318892e-14      -5.346491166671e-13       0.000000000000e+00       1.579047892294e-11       2.589989250271e-12      -7.705682650608e-15 
   70       2.974916510644e-10       3.537066816133e-14      -5.842246081934e-13       0.000000000000e+00       1.521752110013e-11       2.519493355688e-12      -7.685217844437e-15 
   71       3.014333313727e-10       3.689659381044e-14      -6.353623685747e-13       0.000000000000e+00       1.467182926502e-11       2.452107869632e-12      -7.664286725989e-15 
   72       3.053951934663e-10       3.845564448358e-14      -6.880576141017e-13       0.000000000000e+00       1.415248688256e-11       2.387717646406e-12      -7.642283602719e-15 
   73       3.093768264131e-10       4.004744733708e-14      -7.423047291423e-13       0.000000000000e+00       1.365805311247e-11       2.326141342132e-12      -7.618495826355e-15 
   74       3.133772834092e-10       4.167159184543e-14      -7.980972864053e-13       0.000000000000e+00       1.318653845275e-11       2.267128315150e-12      -7.592099303983e-15 
   75       3.173950515451e-10       4.332762931055e-14      -8.554280672028e-13       0.000000000000e+00       1.273538038308e-11       2.210355526417e-12      -7.562154009132e-15 
   76       3.214286346513e-10       4.501504897169e-14      -9.142872766799e-13       0.000000000000e+00       1.230206433215e-11       2.155507148925e-12      -7.527800347987e-15 
   77       3.254784913693e-10       4.673320239055e-14      -9.746567689686e-13       0.000000000000e+00       1.188617115045e-11       2.102537007583e-12      -7.488899521166e-15 
   78       3.295453972107e-10       4.848136432172e-14      -1.036514800884e-12       0.000000000000e+00       1.148766048777e-11       2.051448587512e-12      -7.445502322077e-15 
   79       3.336298454558e-10       5.025875393375e-14      -1.099837727056e-12       0.000000000000e+00       1.110624764843e-11       2.002215189743e-12      -7.397658276955e-15 
   80       3.377320294907e-10       5.206453383859e-14      -1.164599983182e-12       0.000000000000e+00       1.074139246760e-11       1.954778527638e-12      -7.345415274645e-15 
   81       3.418518251466e-10       5.389780912093e-14      -1.230774069270e-12       0.000000000000e+00       1.039228818768e-11       1.909047323299e-12      -7.288819196382e-15 
   82       3.459887730370e-10       5.575762636760e-14      -1.298330532895e-12       0.000000000000e+00       1.005785033465e-11       1.864895903986e-12      -7.227913545573e-15 
   83       3.501420608963e-10       5.764297269697e-14      -1.367237952443e-12       0.000000000000e+00       9.736705594339e-12       1.822162798534e-12      -7.162739077579e-15 
   84       3.543109095334e-10       5.955280967219e-14      -1.437464335719e-12       0.000000000000e+00       9.427516982055e-12       1.780693134669e-12      -7.093490405623e-15 
   85       3.584958428953e-10       6.148618362672e-14      -1.508981618847e-12       0.000000000000e+00       9.130045654279e-12       1.740476981173e-12      -7.021016459178e-15 
   86       3.626975971501e-10       6.344213193391e-14      -1.581761885947e-12       0.000000000000e+00       8.844245546587e-12       1.701531473151e-12      -6.946402697949e-15 
   87       3.669167250732e-10       6.541964937059e-14      -1.655776027025e-12       0.000000000000e+00       8.569937340139e-12       1.663858392640e-12      -6.870823746920e-15 
   88       3.711535851692e-10       6.741768773282e-14      -1.730993745014e-12       0.000000000000e+00       8.306802990011e-12       1.627443501172e-12      -6.795545664393e-15 
   89       3.754083307934e-10       6.943515545148e-14      -1.807383562805e-12       0.000000000000e+00       8.054380253524e-12       1.592255872341e-12      -6.721928210020e-15 
   90       3.796808992733e-10       7.147091720797e-14      -1.884912830290e-12       0.000000000000e+00       7.812057218571e-12       1.558247224366e-12      -6.651427112839e-15 
   91       3.839710010303e-10       7.352379354989e-14      -1.963547731394e-12       0.000000000000e+00       7.579066831945e-12       1.525351252657e-12      -6.585596339312e-15 
   92       3.882781087012e-10       7.559256050670e-14      -2.043253291113e-12       0.000000000000e+00       7.354481427671e-12       1.493482962380e-12      -6.526090361360e-15 
   93       3.926017169369e-10       7.767596649983e-14      -2.123993125856e-12       0.000000000000e+00       7.137427749007e-12       1.462559682133e-12      -6.474237515884e-15 
   94       3.969421901241e-10       7.977278681705e-14      -2.205728636221e-12       0.000000000000e+00       6.927780892210e-12       1.432569169938e-12      -6.429681756562e-15 
   95       4.013000226414e-10       8.188177665856e-14      -2.288419705258e-12       0.000000000000e+00       6.725565101026e-12       1.403510564038e-12      -6.391539864264e-15 
   96       4.056755724752e-10       8.400165442766e-14      -2.372024947812e-12       0.000000000000e+00       6.530740160286e-12       1.375373249599e-12      -6.358808582750e-15 
   97       4.100690540566e-10       8.613110158374e-14      -2.456501714042e-12       0.000000000000e+00       6.343198950914e-12       1.348136488891e-12      -6.330360999145e-15 
   98       4.144805310991e-10       8.826876249540e-14      -2.541806092925e-12       0.000000000000e+00       6.162765004942e-12       1.321769051464e-12      -6.304942924417e-15 
   99       4.189099094352e-10       9.041324429352e-14      -2.627892915780e-12       0.000000000000e+00       5.989190060509e-12       1.296228844325e-12      -6.281169273857e-15 
  100       4.233569298539e-10       9.256311672427e-14      -2.714715759774e-12       0.000000000000e+00       5.822151616879e-12       1.271462542119e-12      -6.257520447561e-15 
  101       4.278211609373e-10       9.471691200226e-14      -2.802226951435e-12       0.000000000000e+00       5.661250489447e-12       1.247405217304e-12      -6.232338710903e-15 
  102       4.323019918984e-10       9.687312466354e-14      -2.890377570172e-12       0.000000000000e+00       5.506008364747e-12       1.223979970329e-12      -6.203824575019e-15 
  103       4.367986254177e-10       9.903021141871e-14      -2.979117451780e-12       0.000000000000e+00       5.355865355462e-12       1.201097559814e-12      -6.170033177281e-15 
  104       4.413103296242e-10       1.011866255189e-13      -3.068395895653e-12       0.000000000000e+00       5.210304281970e-12       1.178677731154e-12      -6.129334215552e-15 
  105       4.458372482331e-10       1.033409254571e-13      -3.158163887635e-12       0.000000000000e+00       5.069247903348e-12       1.156717280210e-12      -6.081870305938e-15 
  106       4.503796870014e-10       1.054916807454e-13      -3.248372185392e-12       0.000000000000e+00       4.932711038130e-12       1.135230537379e-12      -6.028289797193e-15 
  107       4.549378600944e-10       1.076374389425e-13      -3.338970652639e-12       0.000000000000e+00       4.800677589843e-12       1.114228360422e-12      -5.969302265714e-15 
