# dimensionless total lensed [l(l+1)/2pi] C_l's
# for l=2 to 2500, i.e. number of multipoles equal to 2499
#
# -> if you prefer output in CAMB/HealPix/LensPix units/order, set 'format' to 'camb' in input file
# -> if you don't want to see such a header, set 'headers' to 'no' in input file
# -> for CMB lensing (phi), these are C_l^phi-phi for the lensing potential.
#    Remember the conversion factors:
#    C_l^dd (deflection) = l(l+1) C_l^phi-phi
#    C_l^gg (shear/convergence) = 1/4 (l(l+1))^2 C_l^phi-phi
#
# 1:l     2:TT                     3:EE                     4:TE                     5:BB                     6:phiphi                 7:TPhi                   8:Ephi               
    2       1.226012794305e-09       6.317652963428e-15       2.193245838948e-12       3.352045635301e-19       8.892138694683e-09       3.435237434474e-11      -2.277640688609e-12 
    3       1.191864390339e-09       8.077045203235e-15       2.396438073374e-12       6.704874923201e-19       5.659059683180e-09       8.618237977217e-11      -1.726497191271e-12 
    4       1.142349641542e-09       6.948052536268e-15       2.236164578615e-12       1.117653204362e-18       4.010068206187e-09       8.971632858327e-11      -1.131234675350e-12 
    5       1.090971281391e-09       4.583827624179e-15       1.898180523732e-12       1.676805874477e-18       3.038945743318e-09       8.204652286134e-11      -6.280539732927e-13 
    6       1.041692686842e-09       2.510360143645e-15       1.496149497884e-12       2.348075328098e-18       2.403744145688e-09       7.245840128321e-11      -2.552908258820e-13 
    7       9.957064210282e-10       1.321274512737e-15       1.103626077069e-12       3.131616625179e-18       1.959213459146e-09       6.329453272029e-11      -1.610507211688e-14 
    8       9.530646531115e-10       8.477809318031e-16       7.613076414983e-13       4.027609420713e-18       1.634423265490e-09       5.522486947804e-11       1.065377639797e-13 
    9       9.136046113623e-10       6.940380089860e-16       4.877423856063e-13       5.036257042161e-18       1.389542741761e-09       4.837519382818e-11       1.403028604522e-13 
   10       8.772483400644e-10       6.005691188774e-16       2.869119337650e-13       6.157785226835e-18       1.199531314940e-09       4.260651825264e-11       1.165702414951e-13 
   11       8.437890673503e-10       5.065218611251e-16       1.536832745882e-13       7.392440469559e-18       1.000093669536e-09       3.670527227224e-11       6.492963605462e-14 
   12       8.129337146295e-10       4.421217672641e-16       7.801367196519e-14       8.740487942641e-18       8.798851990479e-10       3.320593967359e-11       9.168166844533e-15 
   13       7.844749903892e-10       4.238171546850e-16       4.803362301345e-14       1.020220896582e-17       7.810702264970e-10       2.812499536262e-11      -3.592376217242e-14 
   14       7.582420354690e-10       4.289508192740e-16       5.184540377630e-14       1.177789802283e-17       6.980839946240e-10       2.572820807521e-11      -6.200831422619e-14 
   15       7.339988873540e-10       4.261589500972e-16       7.859167347899e-14       1.346785934262e-17       6.286070573506e-10       1.932191486424e-11      -7.037165208155e-14 
   16       7.114700568355e-10       4.057296183162e-16       1.190793751647e-13       1.527240308617e-17       5.683947305925e-10       1.877015359127e-11      -6.216657817064e-14 
   17       6.906940241815e-10       3.815760105132e-16       1.659005329018e-13       1.719184120310e-17       5.166709664570e-10       1.743392158322e-11      -4.556598567991e-14 
   18       6.714358864969e-10       3.752512771824e-16       2.134683055467e-13       1.922648327229e-17       4.716531322708e-10       1.575599013332e-11      -2.712648751977e-14 
   19       6.537734346153e-10       3.944379347071e-16       2.583215949349e-13       2.137663083710e-17       4.325568981670e-10       1.450105055767e-11      -1.077485054749e-14 
   20       6.373370501479e-10       4.401572744561e-16       2.975211334898e-13       2.364257524971e-17       3.979947915244e-10       1.317472331055e-11       8.361257105139e-18 
   21       6.221631638033e-10       5.073129358243e-16       3.296991921398e-13       2.602459046262e-17       3.674573158310e-10       1.179849876832e-11       4.870966873571e-15 
   22       6.080983948675e-10       5.879979089072e-16       3.543609118457e-13       2.852293112720e-17       3.402212841875e-10       1.054833301038e-11       4.988833937289e-15 
   23       5.951452106462e-10       6.807901016268e-16       3.716187505440e-13       3.113782717835e-17       3.159399204998e-10       9.429133033279e-12       1.959935709675e-15 
   24       5.831403596388e-10       7.860797867577e-16       3.821828395576e-13       3.386948184158e-17       2.940877244196e-10       8.383774814752e-12      -2.215465814994e-15 
   25       5.720710197761e-10       9.038658332358e-16       3.870829457738e-13       3.671806899353e-17       2.744253300162e-10       7.414338928971e-12      -6.294627697984e-15 
   26       5.618159574960e-10       1.033989072110e-15       3.877989465698e-13       3.968373039698e-17       2.566129603084e-10       6.517118775338e-12      -9.336798892732e-15 
   27       5.523188381944e-10       1.176893262256e-15       3.859075124166e-13       4.276657557576e-17       2.404648716671e-10       5.597370714790e-12      -1.146082746326e-14 
   28       5.434508709840e-10       1.333266345802e-15       3.831503104881e-13       4.596668031903e-17       2.257304697186e-10       4.561543490495e-12      -1.311844907097e-14 
   29       5.352407617416e-10       1.504128929361e-15       3.806423636739e-13       4.928409635317e-17       2.123253687733e-10       3.546072795760e-12      -1.438638479728e-14 
   30       5.276496715014e-10       1.690682264402e-15       3.794454458859e-13       5.271884037272e-17       2.000803875331e-10       2.794752140141e-12      -1.524057785651e-14 
   31       5.205397243455e-10       1.894029114720e-15       3.805499766347e-13       5.627089630051e-17       1.887258820569e-10       2.520781918253e-12      -1.567029615138e-14 
   32       5.139141198974e-10       2.114405662056e-15       3.839619348835e-13       5.994024226294e-17       1.782267358297e-10       2.596043279992e-12      -1.567696280203e-14 
   33       5.077444785117e-10       2.351640622014e-15       3.892511277304e-13       6.372683041688e-17       1.685526262817e-10       2.738739043215e-12      -1.527758125091e-14 
   34       5.019412997450e-10       2.605670085557e-15       3.958031642060e-13       6.763058860931e-17       1.596130322264e-10       2.670420335307e-12      -1.448942850982e-14 
   35       4.965071335158e-10       2.877698028103e-15       4.029443210735e-13       7.165145645997e-17       1.513654860553e-10       2.403672520818e-12      -1.327037158241e-14 
   36       4.914231425949e-10       3.169453840951e-15       4.098318179114e-13       7.578936026206e-17       1.437330455484e-10       2.055264152950e-12      -1.155815786898e-14 
   37       4.866330195367e-10       3.482586734221e-15       4.155686958308e-13       8.004421731610e-17       1.366058601578e-10       1.743104443821e-12      -9.351863991397e-15 
   38       4.821502893625e-10       3.817583493671e-15       4.197652282920e-13       8.441598582967e-17       1.299661284169e-10       1.485178771433e-12      -6.937998263459e-15 
   39       4.779775419018e-10       4.174489536754e-15       4.221516008149e-13       8.890463167837e-17       1.237971332867e-10       1.268119446219e-12      -4.745025114702e-15 
   40       4.740721715599e-10       4.553184035481e-15       4.224251999460e-13       9.351011572596e-17       1.180456723088e-10       1.073827813847e-12      -3.289776086357e-15 
   41       4.703695834609e-10       4.953574274141e-15       4.203463438019e-13       9.823240756949e-17       1.126416957486e-10       8.831672436475e-13      -3.026937322219e-15 
   42       4.668722956091e-10       5.376282173058e-15       4.160673514239e-13       1.030715308558e-16       1.075726401053e-10       6.893076439866e-13      -3.825674680183e-15 
   43       4.635825620208e-10       5.822162097374e-15       4.099075174911e-13       1.080275336275e-16       1.028278800564e-10       4.881511184434e-13      -5.331671111899e-15 
   44       4.604749561246e-10       6.292117122201e-15       4.022695869538e-13       1.131004778145e-16       9.837634844002e-11       2.746104429917e-13      -7.103055077701e-15 
   45       4.575123447824e-10       6.787003875095e-15       3.935712761561e-13       1.182904393773e-16       9.417797711500e-11       4.574405046128e-14      -8.697784003884e-15 
   46       4.547052409359e-10       7.307306633224e-15       3.840039174697e-13       1.235975053551e-16       9.022597406384e-11      -1.885747543585e-13      -9.979560037784e-15 
   47       4.520660547196e-10       7.853370490479e-15       3.737099642299e-13       1.290217784126e-16       8.651438774793e-11      -4.132431737143e-13      -1.089426660550e-14 
   48       4.495908876873e-10       8.425488013619e-15       3.628507283199e-13       1.345633794229e-16       8.302525083192e-11      -6.107304611689e-13      -1.138516132607e-14 
   49       4.472581589423e-10       9.023896363935e-15       3.516070377060e-13       1.402224488475e-16       7.972768907801e-11      -7.609560113326e-13      -1.139286447677e-14 
   50       4.450394460557e-10       9.648826008292e-15       3.401237739204e-13       1.459991267682e-16       7.658750317492e-11      -8.476094617231e-13      -1.088731698150e-14 
   51       4.429386642958e-10       1.030066911752e-14       3.283242110189e-13       1.518934833859e-16       7.360104777548e-11      -8.794162627625e-13      -9.973907692377e-15 
   52       4.409611473385e-10       1.097985190249e-14       3.160464176224e-13       1.579055720435e-16       7.076900820996e-11      -8.744336769965e-13      -8.816133220708e-15 
   53       4.391015818647e-10       1.168678657991e-14       3.030930360059e-13       1.640354492945e-16       6.808634248203e-11      -8.542902135034e-13      -7.607603666819e-15 
   54       4.373432085031e-10       1.242187092169e-14       2.892292986901e-13       1.702831752791e-16       6.554188300711e-11      -8.443668711377e-13      -6.573535533551e-15 
   55       4.356659787503e-10       1.318551076344e-14       2.742262635000e-13       1.766487794738e-16       6.312213286701e-11      -8.674123165334e-13      -5.917790567846e-15 
   56       4.340752292181e-10       1.397819511002e-14       2.580076400190e-13       1.831321471137e-16       6.082467132080e-11      -9.221158035576e-13      -5.645165274030e-15 
   57       4.325787310741e-10       1.480043889852e-14       2.405359638832e-13       1.897331052147e-16       5.864738092393e-11      -9.995287688257e-13      -5.697569255714e-15 
   58       4.311779178402e-10       1.565276210818e-14       2.217703571933e-13       1.964514537758e-16       5.658431505722e-11      -1.089091578480e-12      -6.003996397151e-15 
   59       4.298674352696e-10       1.653569020429e-14       2.016663068653e-13       2.032869648070e-16       5.462546308785e-11      -1.178558950710e-12      -6.479896189484e-15 
   60       4.286346912249e-10       1.744975458208e-14       1.801754429805e-13       2.102393813562e-16       5.275651553032e-11      -1.253925378268e-12      -7.026545057002e-15 
   61       4.274657119428e-10       1.839536223841e-14       1.572607590071e-13       2.173084052216e-16       5.096286762725e-11      -1.302918506529e-12      -7.548415389137e-15 
   62       4.263652652103e-10       1.937236959797e-14       1.329467660874e-13       2.244936590664e-16       4.924321148642e-11      -1.326564279786e-12      -8.011260693668e-15 
   63       4.253404758571e-10       2.038041338012e-14       1.072802543310e-13       2.317947140352e-16       4.759859200335e-11      -1.330097191099e-12      -8.396012021826e-15 
   64       4.243946728713e-10       2.141902929807e-14       8.031610733745e-14       2.392110990135e-16       4.602833928930e-11      -1.319659261680e-12      -8.681874267140e-15 
   65       4.235271393737e-10       2.248764835343e-14       5.211757050541e-14       2.467422992955e-16       4.452996831412e-11      -1.302338671946e-12      -8.846268545277e-15 
   66       4.227328625923e-10       2.358559313083e-14       2.275651934209e-14       2.543877552528e-16       4.309907854904e-11      -1.286208392572e-12      -8.864774573893e-15 
   67       4.220022838364e-10       2.471207409253e-14      -7.686272227402e-15       2.621468610021e-16       4.172925360947e-11      -1.280364815534e-12      -8.711073052474e-15 
   68       4.213254650064e-10       2.586637185117e-14      -3.914121522653e-14       2.700190223941e-16       4.041386163276e-11      -1.292617351654e-12      -8.367321011015e-15 
   69       4.207061273580e-10       2.704843515842e-14      -7.161548097497e-14       2.780038476004e-16       3.915210435736e-11      -1.321927247341e-12      -7.857847912567e-15 
   70       4.201500212743e-10       2.825839798474e-14      -1.051402920801e-13       2.861009929294e-16       3.794401909201e-11      -1.364499032171e-12      -7.222215127449e-15 
   71       4.196606268083e-10       2.949640529441e-14      -1.397519940874e-13       2.943101071049e-16       3.678863561313e-11      -1.415972931311e-12      -6.505592534769e-15 
   72       4.192390166127e-10       3.076261409659e-14      -1.754923076743e-13       3.026308314512e-16       3.568392441974e-11      -1.471403418979e-12      -5.758967730115e-15 
   73       4.188837188687e-10       3.205719449643e-14      -2.124085808438e-13       3.110628000790e-16       3.462674498846e-11      -1.525237771918e-12      -5.039355233246e-15 
   74       4.185905802154e-10       3.338033074610e-14      -2.505540411188e-13       3.196056400701e-16       3.361279402844e-11      -1.571294622859e-12      -4.410005695786e-15 
   75       4.183526286792e-10       3.473222229590e-14      -2.899880477356e-13       3.282589716634e-16       3.263655373634e-11      -1.602742513987e-12      -3.940615108917e-15 
   76       4.181629185861e-10       3.611296016836e-14      -3.307613454991e-13       3.370224717328e-16       3.169269621003e-11      -1.613864247961e-12      -3.689305541574e-15 
   77       4.180239672261e-10       3.752212773053e-14      -3.728681644133e-13       3.458960771777e-16       3.078070673969e-11      -1.605768791409e-12      -3.644311367122e-15 
   78       4.179397979753e-10       3.895912869194e-14      -4.162858027910e-13       3.548798191307e-16       2.990101350281e-11      -1.581686839807e-12      -3.771989922331e-15 
   79       4.179130362791e-10       4.042330384196e-14      -4.609887962240e-13       3.639737644147e-16       2.905358466705e-11      -1.545292351007e-12      -4.033944691378e-15 
   80       4.179448337293e-10       4.191392954427e-14      -5.069488622245e-13       3.731780170252e-16       2.823790650489e-11      -1.500717717933e-12      -4.386860724005e-15 
   81       4.180347921414e-10       4.343021623136e-14      -5.541348448659e-13       3.824927196143e-16       2.745296150831e-11      -1.452568941265e-12      -4.782340053684e-15 
   82       4.181808876319e-10       4.497130689896e-14      -6.025126594232e-13       3.919180549739e-16       2.669720650348e-11      -1.405940802140e-12      -5.166737115777e-15 
   83       4.183793946954e-10       4.653627560058e-14      -6.520452370141e-13       4.014542475182e-16       2.596855076540e-11      -1.366432034837e-12      -5.480994165696e-15 
   84       4.186265637063e-10       4.812420383006e-14      -7.026976112388e-13       4.111015122584e-16       2.526489560415e-11      -1.338906327234e-12      -5.673681482522e-15 
   85       4.189241392535e-10       4.973442751627e-14      -7.544532682462e-13       4.208598887552e-16       2.458590384105e-11      -1.323506086826e-12      -5.742962340789e-15 
   86       4.192746216812e-10       5.136632840501e-14      -8.073004182667e-13       4.307293822304e-16       2.393148491240e-11      -1.319002587387e-12      -5.701315535532e-15 
   87       4.196795492347e-10       5.301925961790e-14      -8.612271252096e-13       4.407100142206e-16       2.330124721399e-11      -1.323985566820e-12      -5.563005647007e-15 
   88       4.201394516067e-10       5.469254545589e-14      -9.162213377243e-13       4.508018231778e-16       2.269448565230e-11      -1.336857321324e-12      -5.344140388017e-15 
   89       4.206538034839e-10       5.638548120278e-14      -9.722709202613e-13       4.610048650706e-16       2.211016919565e-11      -1.355826799557e-12      -5.062727951245e-15 
   90       4.212209780936e-10       5.809733292877e-14      -1.029363684133e-12       4.713192139841e-16       2.154692842538e-11      -1.378903696810e-12      -4.738734356576e-15 
   91       4.218382007501e-10       5.982733729394e-14      -1.087487418575e-12       4.817449627216e-16       2.100304308700e-11      -1.403892549167e-12      -4.394140798431e-15 
   92       4.225015024015e-10       6.157470135181e-14      -1.146629921805e-12       4.922822234044e-16       2.047642964139e-11      -1.428386827678e-12      -4.053000993090e-15 
   93       4.232072041325e-10       6.333860024409e-14      -1.206777260291e-12       5.029310673236e-16       1.996513971820e-11      -1.450228121586e-12      -3.736849269785e-15 
   94       4.239567269697e-10       6.511817031511e-14      -1.267908179590e-12       5.136913328405e-16       1.946896827096e-11      -1.468975515004e-12      -3.450010277257e-15 
   95       4.247524229500e-10       6.691251459372e-14      -1.329998906414e-12       5.245627895704e-16       1.898806539741e-11      -1.484647313600e-12      -3.192175604932e-15 
   96       4.255960835221e-10       6.872070458739e-14      -1.393024852178e-12       5.355451963278e-16       1.852244162506e-11      -1.497276118523e-12      -2.962849789875e-15 
   97       4.264889141088e-10       7.054178005673e-14      -1.456960619737e-12       5.466383008935e-16       1.807196247554e-11      -1.506909304775e-12      -2.761343844544e-15 
   98       4.274315086685e-10       7.237474879009e-14      -1.521780010128e-12       5.578418397808e-16       1.763634302871e-11      -1.513609499575e-12      -2.586768784541e-15 
   99       4.284238242571e-10       7.421858637814e-14      -1.587456029310e-12       5.691555380030e-16       1.721514248703e-11      -1.517455060731e-12      -2.438029156359e-15 
  100       4.294651555898e-10       7.607223598844e-14      -1.653960894902e-12       5.805791088398e-16       1.680775873969e-11      -1.518540555006e-12      -2.313816565137e-15 
  101       4.305541096023e-10       7.793460814002e-14      -1.721266042923e-12       5.921122536044e-16       1.641342292691e-11      -1.516977236490e-12      -2.212603202404e-15 
  102       4.316885800135e-10       7.980458047794e-14      -1.789342134536e-12       6.037546614099e-16       1.603119400419e-11      -1.512893524964e-12      -2.132635373840e-15 
  103       4.328657218864e-10       8.168099754789e-14      -1.858159062779e-12       6.155060089366e-16       1.565995330651e-11      -1.506435484271e-12      -2.071927027014e-15 
  104       4.340829409906e-10       8.356269735612e-14      -1.927686015493e-12       6.273660771722e-16       1.529866786101e-11      -1.497788393659e-12      -2.028482825557e-15 
  105       4.353410688891e-10       8.544859562104e-14      -1.997891659237e-12       6.393351200955e-16       1.494723254248e-11      -1.487243750143e-12      -2.001015630974e-15 
  106       4.366415713318e-10       8.733761253554e-14      -2.068743992895e-12       6.514135455937e-16       1.460573207656e-11      -1.475142251133e-12      -1.988314327238e-15 
  107       4.379855576418e-10       8.922864706596e-14      -2.140210300984e-12       6.636018039758e-16       1.427417999771e-11      -1.461854211303e-12      -1.989019027200e-15 
