# dimensionless total [l(l+1)/2pi] C_l's
# for l=2 to 3000, i.e. number of multipoles equal to 2999
#
# -> if you prefer output in CAMB/HealPix/LensPix units/order, set 'format' to 'camb' in input file
# -> if you don't want to see such a header, set 'headers' to 'no' in input file
# -> for CMB lensing (phi), these are C_l^phi-phi for the lensing potential.
#    Remember the conversion factors:
#    C_l^dd (deflection) = l(l+1) C_l^phi-phi
#    C_l^gg (shear/convergence) = 1/4 (l(l+1))^2 C_l^phi-phi
#
# 1:l     2:TT                     3:EE                     4:TE                     5:BB                     6:phiphi                 7:TPhi                   8:Ephi               
    2       1.226012719030e-09       6.317317758718e-15       2.193245847784e-12       0.000000000000e+00       8.892138694683e-09       3.435237434474e-11      -2.277640688609e-12 
    3       1.191864228226e-09       8.076374714297e-15       2.396438112657e-12       0.000000000000e+00       5.659059683180e-09       8.618237977217e-11      -1.726497191271e-12 
    4       1.142349346084e-09       6.946934875953e-15       2.236164691126e-12       0.000000000000e+00       4.010068206187e-09       8.971632858327e-11      -1.131234675350e-12 
    5       1.090970791818e-09       4.582150793932e-15       1.898180779011e-12       0.000000000000e+00       3.038945743318e-09       8.204652286134e-11      -6.280539732927e-13 
    6       1.041691925517e-09       2.508012001767e-15       1.496149997417e-12       0.000000000000e+00       2.403744145688e-09       7.245840128321e-11      -2.552908258820e-13 
    7       9.957052914326e-10       1.318142741040e-15       1.103626958586e-12       0.000000000000e+00       1.959213459146e-09       6.329453272029e-11      -1.610507211688e-14 
    8       9.530630384808e-10       8.437530011967e-16       7.613090822537e-13       0.000000000000e+00       1.634423265490e-09       5.522486947804e-11       1.065377639797e-13 
    9       9.136023740281e-10       6.890011449263e-16       4.877446045960e-13       0.000000000000e+00       1.389542741761e-09       4.837519382818e-11       1.403028604522e-13 
   10       8.772453215173e-10       5.944102679533e-16       2.869151928540e-13       0.000000000000e+00       1.199531314940e-09       4.260651825264e-11       1.165702414951e-13 
   11       8.437850890200e-10       4.991276603449e-16       1.536878785677e-13       0.000000000000e+00       1.000093669536e-09       3.670527227224e-11       6.492963605462e-14 
   12       8.129285793490e-10       4.333785178368e-16       7.801996760035e-14       0.000000000000e+00       8.798851990479e-10       3.320593967359e-11       9.168166844533e-15 
   13       7.844684844906e-10       4.136108022112e-16       4.804199717816e-14       0.000000000000e+00       7.810702264970e-10       2.812499536262e-11      -3.592376217242e-14 
   14       7.582339314316e-10       4.171669422711e-16       5.185628080302e-14       0.000000000000e+00       6.980839946240e-10       2.572820807521e-11      -6.200831422619e-14 
   15       7.339889469094e-10       4.126827586653e-16       7.860551188014e-14       0.000000000000e+00       6.286070573506e-10       1.932191486424e-11      -7.037165208155e-14 
   16       7.114580344186e-10       3.904459645036e-16       1.190966639002e-13       0.000000000000e+00       5.683947305925e-10       1.877015359127e-11      -6.216657817064e-14 
   17       6.906796706041e-10       3.643694115714e-16       1.659217873806e-13       0.000000000000e+00       5.166709664570e-10       1.743392158322e-11      -4.556598567991e-14 
   18       6.714189527727e-10       3.560059515546e-16       2.134940634615e-13       0.000000000000e+00       4.716531322708e-10       1.575599013332e-11      -2.712648751977e-14 
   19       6.537536754574e-10       3.730378560404e-16       2.583524126640e-13       0.000000000000e+00       4.325568981670e-10       1.450105055767e-11      -1.077485054749e-14 
   20       6.373142279392e-10       4.164862299801e-16       2.975575817911e-13       0.000000000000e+00       3.979947915244e-10       1.317472331055e-11       8.361257105139e-18 
   21       6.221370514099e-10       4.812546066202e-16       3.297418536153e-13       0.000000000000e+00       3.674573158310e-10       1.179849876832e-11       4.870966873571e-15 
   22       6.080687790006e-10       5.594359534930e-16       3.544103775761e-13       0.000000000000e+00       3.402212841875e-10       1.054833301038e-11       4.988833937289e-15 
   23       5.951118937364e-10       6.496082510255e-16       3.716756188311e-13       0.000000000000e+00       3.159399204998e-10       9.429133033279e-12       1.959935709675e-15 
   24       5.831031622618e-10       7.521619434699e-16       3.822477138279e-13       0.000000000000e+00       2.940877244196e-10       8.383774814752e-12      -2.215465814994e-15 
   25       5.720297811971e-10       8.670961666336e-16       3.871564349201e-13       0.000000000000e+00       2.744253300162e-10       7.414338928971e-12      -6.294627697984e-15 
   26       5.617705369203e-10       9.942521222863e-16       3.878816643003e-13       0.000000000000e+00       2.566129603084e-10       6.517118775338e-12      -9.336798892732e-15 
   27       5.522691142624e-10       1.134074029244e-15       3.860000786942e-13       0.000000000000e+00       2.404648716671e-10       5.597370714790e-12      -1.146082746326e-14 
   28       5.433967416729e-10       1.287250381153e-15       3.832533522771e-13       0.000000000000e+00       2.257304697186e-10       4.561543490495e-12      -1.311844907097e-14 
   29       5.351821418152e-10       1.454802368416e-15       3.807565179819e-13       0.000000000000e+00       2.123253687733e-10       3.546072795760e-12      -1.438638479728e-14 
   30       5.275864914479e-10       1.637931906503e-15       3.795713613676e-13       0.000000000000e+00       2.000803875331e-10       2.794752140141e-12      -1.524057785651e-14 
   31       5.204719291293e-10       1.837742490523e-15       3.806883150097e-13       0.000000000000e+00       1.887258820569e-10       2.520781918253e-12      -1.567029615138e-14 
   32       5.138416651135e-10       2.054470980157e-15       3.841133735603e-13       0.000000000000e+00       1.782267358297e-10       2.596043279992e-12      -1.567696280203e-14 
   33       5.076673277129e-10       2.287946793579e-15       3.894163620941e-13       0.000000000000e+00       1.685526262817e-10       2.738739043215e-12      -1.527758125091e-14 
   34       5.018594219457e-10       2.538106744141e-15       3.959829092823e-13       0.000000000000e+00       1.596130322264e-10       2.670420335307e-12      -1.448942850982e-14 
   35       4.964204999672e-10       2.806155422274e-15       4.031393112141e-13       0.000000000000e+00       1.513654860553e-10       2.403672520818e-12      -1.327037158241e-14 
   36       4.913317235321e-10       3.093822806117e-15       4.100428081209e-13       0.000000000000e+00       1.437330455484e-10       2.055264152950e-12      -1.155815786898e-14 
   37       4.865367814650e-10       3.402758668328e-15       4.157964618186e-13       0.000000000000e+00       1.366058601578e-10       1.743104443821e-12      -9.351863991397e-15 
   38       4.820491945591e-10       3.733450241407e-15       4.200105596958e-13       0.000000000000e+00       1.299661284169e-10       1.485178771433e-12      -6.937998263459e-15 
   39       4.778715459896e-10       4.085943327538e-15       4.224152991376e-13       0.000000000000e+00       1.237971332867e-10       1.268119446219e-12      -4.745025114702e-15 
   40       4.739612201800e-10       4.460117439308e-15       4.227080783521e-13       0.000000000000e+00       1.180456723088e-10       1.073827813847e-12      -3.289776086357e-15 
   41       4.702536103513e-10       4.855880166828e-15       4.206492238609e-13       0.000000000000e+00       1.126416957486e-10       8.831672436475e-13      -3.026937322219e-15 
   42       4.667512260361e-10       5.273853745892e-15       4.163910494453e-13       0.000000000000e+00       1.075726401053e-10       6.893076439866e-13      -3.825674680183e-15 
   43       4.634563121936e-10       5.714892828054e-15       4.102528379175e-13       0.000000000000e+00       1.028278800564e-10       4.881511184434e-13      -5.331671111899e-15 
   44       4.603434309842e-10       6.179900728298e-15       4.026373183525e-13       0.000000000000e+00       9.837634844002e-11       2.746104429917e-13      -7.103055077701e-15 
   45       4.573754378584e-10       6.669734365013e-15       3.939621845705e-13       0.000000000000e+00       9.417797711500e-11       4.574405046128e-14      -8.697784003884e-15 
   46       4.545628414449e-10       7.184878694246e-15       3.844187313624e-13       0.000000000000e+00       9.022597406384e-11      -1.885747543585e-13      -9.979560037784e-15 
   47       4.519180493689e-10       7.725679633396e-15       3.741493649951e-13       0.000000000000e+00       8.651438774793e-11      -4.132431737143e-13      -1.089426660550e-14 
   48       4.494371604691e-10       8.292430626070e-15       3.633153427035e-13       0.000000000000e+00       8.302525083192e-11      -6.107304611689e-13      -1.138516132607e-14 
   49       4.470985909256e-10       8.885369765425e-15       3.520974298938e-13       0.000000000000e+00       7.972768907801e-11      -7.609560113326e-13      -1.139286447677e-14 
   50       4.448739167066e-10       9.504728654423e-15       3.406404376360e-13       0.000000000000e+00       7.658750317492e-11      -8.476094617231e-13      -1.088731698150e-14 
   51       4.427670578724e-10       1.015090129569e-14       3.288675624279e-13       0.000000000000e+00       7.360104777548e-11      -8.794162627625e-13      -9.973907692377e-15 
   52       4.407833555857e-10       1.082431607244e-14       3.166167870756e-13       0.000000000000e+00       7.076900820996e-11      -8.744336769965e-13      -8.816133220708e-15 
   53       4.389175053677e-10       1.152538758678e-14       3.036906591506e-13       0.000000000000e+00       6.808634248203e-11      -8.542902135034e-13      -7.607603666819e-15 
   54       4.371527581123e-10       1.225451621776e-14       2.898543072659e-13       0.000000000000e+00       6.554188300711e-11      -8.443668711377e-13      -6.573535533551e-15 
   55       4.354690764614e-10       1.301211068088e-14       2.748786804953e-13       0.000000000000e+00       6.312213286701e-11      -8.674123165334e-13      -5.917790567846e-15 
   56       4.338718071026e-10       1.379866328200e-14       2.586873899023e-13       0.000000000000e+00       6.082467132080e-11      -9.221158035576e-13      -5.645165274030e-15 
   57       4.323687317987e-10       1.461469258395e-14       2.412428709513e-13       0.000000000000e+00       5.864738092393e-11      -9.995287688257e-13      -5.697569255714e-15 
   58       4.309612958019e-10       1.546072248726e-14       2.225041394403e-13       0.000000000000e+00       5.658431505722e-11      -1.089091578480e-12      -6.003996397151e-15 
   59       4.296441577784e-10       1.633728268433e-14       2.024265697176e-13       0.000000000000e+00       5.462546308785e-11      -1.178558950710e-12      -6.479896189484e-15 
   60       4.284047397315e-10       1.724490911364e-14       1.809616728990e-13       0.000000000000e+00       5.275651553032e-11      -1.253925378268e-12      -7.026545057002e-15 
   61       4.272290809815e-10       1.818401337390e-14       1.580723225927e-13       0.000000000000e+00       5.096286762725e-11      -1.302918506529e-12      -7.548415389137e-15 
   62       4.261219537786e-10       1.915445568720e-14       1.337829274484e-13       0.000000000000e+00       4.924321148642e-11      -1.326564279786e-12      -8.011260693668e-15 
   63       4.250904847350e-10       2.015587645257e-14       1.081401780692e-13       0.000000000000e+00       4.759859200335e-11      -1.330097191099e-12      -8.396012021826e-15 
   64       4.241380040961e-10       2.118781519750e-14       8.119885630246e-14       0.000000000000e+00       4.602833928930e-11      -1.319659261680e-12      -8.681874267140e-15 
   65       4.232637956866e-10       2.224970687433e-14       5.302210359433e-14       0.000000000000e+00       4.452996831412e-11      -1.302338671946e-12      -8.846268545277e-15 
   66       4.224628468575e-10       2.334087815661e-14       2.368168934433e-14       0.000000000000e+00       4.309907854904e-11      -1.286208392572e-12      -8.864774573893e-15 
   67       4.217255984328e-10       2.446054373551e-14      -6.741720740040e-15       0.000000000000e+00       4.172925360947e-11      -1.280364815534e-12      -8.711073052474e-15 
   68       4.210421107237e-10       2.560798820130e-14      -3.817865000175e-14       0.000000000000e+00       4.041386163276e-11      -1.292617351654e-12      -8.367321011015e-15 
   69       4.204161007540e-10       2.678316276225e-14      -7.063639272792e-14       0.000000000000e+00       3.915210435736e-11      -1.321927247341e-12      -7.857847912567e-15 
   70       4.198533132082e-10       2.798620333887e-14      -1.041462998465e-13       0.000000000000e+00       3.794401909201e-11      -1.364499032171e-12      -7.222215127449e-15 
   71       4.193572213750e-10       2.921725670109e-14      -1.387448486633e-13       0.000000000000e+00       3.678863561313e-11      -1.415972931311e-12      -6.505592534769e-15 
   72       4.189288900366e-10       3.047648151106e-14      -1.744738950628e-13       0.000000000000e+00       3.568392441974e-11      -1.471403418979e-12      -5.758967730115e-15 
   73       4.185668383586e-10       3.176404936596e-14      -2.113809257087e-13       0.000000000000e+00       3.462674498846e-11      -1.525237771918e-12      -5.039355233246e-15 
   74       4.182669027792e-10       3.308014584079e-14      -2.495193102447e-13       0.000000000000e+00       3.361279402844e-11      -1.571294622859e-12      -4.410005695786e-15 
   75       4.180220998995e-10       3.442497153118e-14      -2.889485534954e-13       0.000000000000e+00       3.263655373634e-11      -1.602742513987e-12      -3.940615108917e-15 
   76       4.178254743246e-10       3.579861861736e-14      -3.297195557188e-13       0.000000000000e+00       3.169269621003e-11      -1.613864247961e-12      -3.689305541574e-15 
   77       4.176795448218e-10       3.720067226410e-14      -3.718267327639e-13       0.000000000000e+00       3.078070673969e-11      -1.605768791409e-12      -3.644311367122e-15 
   78       4.175883396164e-10       3.863053809102e-14      -4.152475824261e-13       0.000000000000e+00       2.990101350281e-11      -1.581686839807e-12      -3.771989922331e-15 
   79       4.175544895800e-10       4.008755871778e-14      -4.599568474947e-13       0.000000000000e+00       2.905358466705e-11      -1.545292351007e-12      -4.033944691378e-15 
   80       4.175791523289e-10       4.157101225439e-14      -5.059264605318e-13       0.000000000000e+00       2.823790650489e-11      -1.500717717933e-12      -4.386860724005e-15 
   81       4.176619363226e-10       4.308011079146e-14      -5.531254886509e-13       0.000000000000e+00       2.745296150831e-11      -1.452568941265e-12      -4.782340053684e-15 
   82       4.178008249624e-10       4.461399889047e-14      -6.015200782954e-13       0.000000000000e+00       2.669720650348e-11      -1.405940802140e-12      -5.166737115777e-15 
   83       4.179921006897e-10       4.617175207404e-14      -6.510734000177e-13       0.000000000000e+00       2.596855076540e-11      -1.366432034837e-12      -5.480994165696e-15 
   84       4.182320231234e-10       4.775245377037e-14      -7.017507282064e-13       0.000000000000e+00       2.526489560415e-11      -1.338906327234e-12      -5.673681482522e-15 
   85       4.185223493780e-10       4.935544410966e-14      -7.535357687976e-13       0.000000000000e+00       2.458590384105e-11      -1.323506086826e-12      -5.742962340789e-15 
   86       4.188655939902e-10       5.098010979662e-14      -8.064169496922e-13       0.000000000000e+00       2.393148491240e-11      -1.319002587387e-12      -5.701315535532e-15 
   87       4.192633105107e-10       5.262580913509e-14      -8.603825570932e-13       0.000000000000e+00       2.330124721399e-11      -1.323985566820e-12      -5.563005647007e-15 
   88       4.197160450814e-10       5.429187183691e-14      -9.154207665864e-13       0.000000000000e+00       2.269448565230e-11      -1.336857321324e-12      -5.344140388017e-15 
   89       4.202232900138e-10       5.597759883069e-14      -9.715196742205e-13       0.000000000000e+00       2.211016919565e-11      -1.355826799557e-12      -5.062727951245e-15 
   90       4.207834373676e-10       5.768226207068e-14      -1.028667327588e-12       0.000000000000e+00       2.154692842538e-11      -1.378903696810e-12      -4.738734356576e-15 
   91       4.213937325279e-10       5.940510434554e-14      -1.086851756904e-12       0.000000000000e+00       2.100304308700e-11      -1.403892549167e-12      -4.394140798431e-15 
   92       4.220502277840e-10       6.114533908725e-14      -1.146061006088e-12       0.000000000000e+00       2.047642964139e-11      -1.428386827678e-12      -4.053000993090e-15 
   93       4.227492629392e-10       6.290214724062e-14      -1.206281377669e-12       0.000000000000e+00       1.996513971820e-11      -1.450228121586e-12      -3.736849269785e-15 
   94       4.234922626993e-10       6.467466774884e-14      -1.267491798033e-12       0.000000000000e+00       1.946896827096e-11      -1.468975515004e-12      -3.450010277257e-15 
   95       4.242815783393e-10       6.646200527686e-14      -1.329668658233e-12       0.000000000000e+00       1.898806539741e-11      -1.484647313600e-12      -3.192175604932e-15 
   96       4.251189998421e-10       6.826323279468e-14      -1.392787531119e-12       0.000000000000e+00       1.852244162506e-11      -1.497276118523e-12      -2.962849789875e-15 
   97       4.260057304376e-10       7.007739134588e-14      -1.456823177908e-12       0.000000000000e+00       1.807196247554e-11      -1.506909304775e-12      -2.761343844544e-15 
   98       4.269423611425e-10       7.190348981602e-14      -1.521749554742e-12       0.000000000000e+00       1.763634302871e-11      -1.513609499575e-12      -2.586768784541e-15 
   99       4.279288452991e-10       7.374050470122e-14      -1.587539819249e-12       0.000000000000e+00       1.721514248703e-11      -1.517455060731e-12      -2.438029156359e-15 
  100       4.289644731153e-10       7.558737987654e-14      -1.654166337108e-12       0.000000000000e+00       1.680775873969e-11      -1.518540555006e-12      -2.313816565137e-15 
  101       4.300478462038e-10       7.744302636452e-14      -1.721600688606e-12       0.000000000000e+00       1.641342292691e-11      -1.516977236490e-12      -2.212603202404e-15 
  102       4.311768521214e-10       7.930632210365e-14      -1.789813675206e-12       0.000000000000e+00       1.603119400419e-11      -1.512893524964e-12      -2.132635373840e-15 
  103       4.323486389088e-10       8.117611171683e-14      -1.858775326104e-12       0.000000000000e+00       1.565995330651e-11      -1.506435484271e-12      -2.071927027014e-15 
  104       4.335606068873e-10       8.305123270158e-14      -1.928454970636e-12       0.000000000000e+00       1.529866786101e-11      -1.497788393659e-12      -2.028482825557e-15 
  105       4.348135914734e-10       8.493059852853e-14      -1.998821452515e-12       0.000000000000e+00       1.494723254248e-11      -1.487243750143e-12      -2.001015630974e-15 
  106       4.361090648521e-10       8.681312638897e-14      -2.069842956901e-12       0.000000000000e+00       1.460573207656e-11      -1.475142251133e-12      -1.988314327238e-15 
  107       4.374481430032e-10       8.869771183365e-14      -2.141486954340e-12       0.000000000000e+00       1.427417999771e-11      -1.461854211303e-12      -1.989019027200e-15 
