# dimensionless total lensed [l(l+1)/2pi] C_l's
# for l=2 to 2500, i.e. number of multipoles equal to 2499
#
# -> if you prefer output in CAMB/HealPix/LensPix units/order, set 'format' to 'camb' in input file
# -> if you don't want to see such a header, set 'headers' to 'no' in input file
# -> for CMB lensing (phi), these are C_l^phi-phi for the lensing potential.
#    Remember the conversion factors:
#    C_l^dd (deflection) = l(l+1) C_l^phi-phi
#    C_l^gg (shear/convergence) = 1/4 (l(l+1))^2 C_l^phi-phi
#
# 1:l     2:TT                     3:EE                     4:TE                     5:BB                     6:phiphi                 7:TPhi                   8:Ephi               
    2       1.095087079834e-08       4.262258613470e-16      -6.226677653423e-13       2.040827311316e-19       7.467473541145e-09       4.747321725562e-09      -3.378653792645e-13 
    3       9.996467355846e-09       9.897357173336e-16       1.628973830150e-12       4.082495442884e-19       4.506269183886e-09       3.362736934150e-09       3.291504540747e-13 
    4       9.150689527051e-09       2.429706113881e-15       3.859349657870e-12       6.806016895679e-19       3.072087958112e-09       2.607297481684e-09       7.447264118853e-13 
    5       8.384606327337e-09       4.106876828606e-15       5.182722396404e-12       1.021248292868e-18       2.252794035095e-09       2.124441650246e-09       8.616349383689e-13 
    6       7.692881381404e-09       5.168525249045e-15       5.471067773628e-12       1.430323149857e-18       1.731432182251e-09       1.784628478679e-09       7.712356040234e-13 
    7       7.071656320676e-09       5.453803174021e-15       5.068926464739e-12       1.907982951195e-18       1.375933681877e-09       1.531273260558e-09       5.969212254750e-13 
    8       6.515981960506e-09       5.367940821989e-15       4.429994161369e-12       2.454405128434e-18       1.121260755661e-09       1.334694706634e-09       4.285293456108e-13 
    9       6.019931331997e-09       5.363841921017e-15       3.859141622066e-12       3.069785318360e-18       9.317640422012e-10       1.177566305001e-09       3.012055328228e-13 
   10       5.576334472908e-09       5.651237152107e-15       3.439680189096e-12       3.754334451373e-18       7.864830477592e-10       1.049105530691e-09       2.094258023923e-13 
   11       5.178801396656e-09       6.197285218894e-15       3.103533754358e-12       4.508275479972e-18       6.679505647884e-10       9.155213603461e-10       1.289199365717e-13 
   12       4.822868362685e-09       6.867683742981e-15       2.751710848211e-12       5.331839776393e-18       5.751911697884e-10       8.244163704250e-10       5.807178675610e-14 
   13       4.503680902504e-09       7.552655438285e-15       2.336225610939e-12       6.225263243312e-18       5.288432428089e-10       8.164531282876e-10       4.211899035365e-14 
   14       4.216249048506e-09       8.218687038907e-15       1.874399803974e-12       7.188782197765e-18       4.561028128334e-10       7.327113674576e-10      -3.389553735476e-14 
   15       3.956723445224e-09       8.915051827058e-15       1.417947794685e-12       8.222629105155e-18       3.958800238413e-10       6.565021570767e-10      -8.880602858396e-14 
   16       3.721440435487e-09       9.703320206605e-15       1.008483900785e-12       9.327028256610e-18       3.673597048535e-10       6.447851265908e-10      -1.132384798737e-13 
   17       3.507357692689e-09       1.061968780074e-14       6.525669279310e-13       1.050219149797e-17       3.184166930615e-10       5.688816590979e-10      -1.425065495048e-13 
   18       3.311785687582e-09       1.173080176298e-14       3.350233244289e-13       1.174831417720e-17       2.808353783310e-10       5.111019131197e-10      -1.655992154379e-13 
   19       3.134311584076e-09       1.305007105023e-14       3.718105531217e-14       1.306557112058e-17       2.578708761968e-10       4.812366785009e-10      -1.892525431032e-13 
   20       2.970888153914e-09       1.455566836279e-14      -2.637712908706e-13       1.445411364120e-17       2.335018964702e-10       4.413956896999e-10      -2.287781242477e-13 
   21       2.821054104138e-09       1.620503868337e-14      -5.652651801659e-13       1.591406676531e-17       2.100834339799e-10       4.013808482800e-10      -2.732081902332e-13 
   22       2.683170818054e-09       1.793821579162e-14      -8.566391779124e-13       1.744552629373e-17       1.947128914775e-10       3.832123010973e-10      -3.050527436025e-13 
   23       2.556507310148e-09       1.970322304620e-14      -1.129312777620e-12       1.904855927141e-17       1.827580250022e-10       3.729883854766e-10      -3.342955934804e-13 
   24       2.439130957321e-09       2.146391051485e-14      -1.376720589088e-12       2.072320099266e-17       1.666010123533e-10       3.478148185975e-10      -3.764919837744e-13 
   25       2.330490629904e-09       2.327952218935e-14      -1.597399591409e-12       2.246946025110e-17       1.499136471317e-10       3.185516156034e-10      -4.167508655017e-13 
   26       2.229478132842e-09       2.525300047485e-14      -1.793567081106e-12       2.428731487502e-17       1.390276045779e-10       3.041712217043e-10      -4.323712404395e-13 
   27       2.135688945870e-09       2.748296090473e-14      -1.970683697068e-12       2.617671955149e-17       1.314923488476e-10       2.973771613432e-10      -4.255799651487e-13 
   28       2.048314601141e-09       3.003517819651e-14      -2.136575254112e-12       2.813760406420e-17       1.224069510222e-10       2.836571445060e-10      -4.070102155549e-13 
   29       1.967319026531e-09       3.278114226460e-14      -2.297175168068e-12       3.016989572783e-17       1.118981673236e-10       2.634522289722e-10      -3.822437607940e-13 
   30       1.892135772206e-09       3.549231720641e-14      -2.459451801764e-12       3.227350201994e-17       1.019186316064e-10       2.427787575872e-10      -3.563633737756e-13 
   31       1.821582147508e-09       3.794707930362e-14      -2.629519783376e-12       3.444831567024e-17       9.434429290448e-11       2.275722009686e-10      -3.351985353794e-13 
   32       1.755599934283e-09       4.017455179267e-14      -2.801506087204e-12       3.669425914638e-17       8.891797535384e-11       2.173437309223e-10      -3.229319203103e-13 
   33       1.694034842539e-09       4.230474212374e-14      -2.964342956179e-12       3.901125698052e-17       8.450851303206e-11       2.090935337785e-10      -3.236762177394e-13 
   34       1.636351712169e-09       4.451023267233e-14      -3.109167767708e-12       4.139923885562e-17       7.994536980743e-11       1.997960371237e-10      -3.406945745737e-13 
   35       1.582435771964e-09       4.701109479831e-14      -3.245643061131e-12       4.385818881708e-17       7.517690979245e-11       1.896026075933e-10      -3.714428848011e-13 
   36       1.531990797503e-09       5.007729595161e-14      -3.391638271897e-12       4.638811571688e-17       7.050871771625e-11       1.797482216458e-10      -4.106650460743e-13 
   37       1.484494589765e-09       5.390436292482e-14      -3.561837963250e-12       4.898905847069e-17       6.623137314305e-11       1.714028619951e-10      -4.518763358953e-13 
   38       1.439913182610e-09       5.817968272252e-14      -3.742406204425e-12       5.166114248552e-17       6.237874754644e-11       1.645678260513e-10      -4.883519419081e-13 
   39       1.398171791300e-09       6.236668471411e-14      -3.907746308309e-12       5.440454641579e-17       5.888869108242e-11       1.588123091900e-10      -5.123057877998e-13 
   40       1.358933203317e-09       6.581149978436e-14      -4.026850916753e-12       5.721949109411e-17       5.566421345651e-11       1.535549112281e-10      -5.145168763103e-13 
   41       1.321753551266e-09       6.794266896869e-14      -4.069873953807e-12       6.010625368756e-17       5.260022597674e-11       1.481919471544e-10      -4.873186819320e-13 
   42       1.286667709721e-09       6.896604229915e-14      -4.031228216871e-12       6.306520807607e-17       4.968086575972e-11       1.425588470041e-10      -4.349394043794e-13 
   43       1.253754491786e-09       6.938378136289e-14      -3.913440600247e-12       6.609680296296e-17       4.690921304550e-11       1.366005904044e-10      -3.663866066130e-13 
   44       1.222962375620e-09       6.981365213416e-14      -3.721028696791e-12       6.920155588692e-17       4.427981051788e-11       1.302441310378e-10      -2.927895177039e-13 
   45       1.194161461135e-09       7.084917691087e-14      -3.463724397093e-12       7.238004839043e-17       4.178549860627e-11       1.234621286444e-10      -2.251520049686e-13 
   46       1.167344766401e-09       7.257393812787e-14      -3.166961165065e-12       7.563290050184e-17       3.944206992523e-11       1.164899425136e-10      -1.665102271474e-13 
   47       1.142467690716e-09       7.491383330398e-14      -2.864762241928e-12       7.896079533813e-17       3.726974994612e-11       1.096712896119e-10      -1.176471165718e-13 
   48       1.119382300419e-09       7.776973487201e-14      -2.597240897395e-12       8.236449057290e-17       3.528599187083e-11       1.034012155839e-10      -7.925413215165e-14 
   49       1.097829561952e-09       8.101595299316e-14      -2.410919154152e-12       8.584482187769e-17       3.350518574043e-11       9.812853473248e-11      -5.192190008300e-14 
   50       1.077520950074e-09       8.452052028024e-14      -2.346148865410e-12       8.940267463797e-17       3.193197855793e-11       9.421639967542e-11      -3.573736149372e-14 
   51       1.058427406450e-09       8.821610334942e-14      -2.394610251553e-12       9.303888206658e-17       3.053977196410e-11       9.147373185604e-11      -2.896801618136e-14 
   52       1.040555389967e-09       9.204568228797e-14      -2.530827756506e-12       9.675430538279e-17       2.928588517510e-11       8.950082079562e-11      -2.900435360227e-14 
   53       1.023860880252e-09       9.594191288010e-14      -2.723778006710e-12       1.005498650224e-16       2.811685633282e-11       8.781594233112e-11      -3.269491574398e-14 
   54       1.008245816612e-09       9.982661633469e-14      -2.936601587516e-12       1.044265425862e-16       2.696785095521e-11       8.585112234415e-11      -3.631842051316e-14 
   55       9.935966229155e-10       1.036261690093e-13      -3.134704392938e-12       1.083853387708e-16       2.577980137614e-11       8.309937864204e-11      -3.648165475050e-14 
   56       9.799191474860e-10       1.073233175805e-13      -3.313078725315e-12       1.124271304601e-16       2.455716627000e-11       7.960898551457e-11      -3.313822130002e-14 
   57       9.672310077127e-10       1.109173420922e-13      -3.475264497049e-12       1.165527815450e-16       2.332348368742e-11       7.560457494257e-11      -2.727088544315e-14 
   58       9.555205615944e-10       1.144093905566e-13      -3.625592107591e-12       1.207631840586e-16       2.210499431970e-11       7.134804542664e-11      -2.003952285918e-14 
   59       9.447449863998e-10       1.178025881626e-13      -3.769221086325e-12       1.250592584092e-16       2.093074076700e-11       6.714022746222e-11      -1.278931195968e-14 
   60       9.348283573277e-10       1.211021464835e-13      -3.912178735457e-12       1.294419536140e-16       1.983266680648e-11       6.332254901479e-11      -7.058926223031e-15 
   61       9.256869863965e-10       1.243119582330e-13      -4.059927767277e-12       1.339122270997e-16       1.883874897620e-11       6.019652609326e-11      -4.202614957698e-15 
   62       9.173164320162e-10       1.274232412921e-13      -4.212606092643e-12       1.384709782784e-16       1.795036520101e-11       5.775734944722e-11      -4.138785757068e-15 
   63       9.097206990787e-10       1.304235279033e-13      -4.368782261783e-12       1.431191004085e-16       1.715999934661e-11       5.590318181398e-11      -6.333787043853e-15 
   64       9.028856666442e-10       1.332999519399e-13      -4.526824313214e-12       1.478574993045e-16       1.645764124942e-11       5.451113279721e-11      -1.015925470742e-14 
   65       8.967780315475e-10       1.360392466034e-13      -4.684891742729e-12       1.526870929227e-16       1.583066490536e-11       5.343631699462e-11      -1.488805341008e-14 
   66       8.913442520051e-10       1.386277421203e-13      -4.840927472393e-12       1.576088109454e-16       1.526370665869e-11       5.251091212558e-11      -1.969021789346e-14 
   67       8.865094912214e-10       1.410513634393e-13      -4.992649819527e-12       1.626235943668e-16       1.473854339086e-11       5.154321715879e-11      -2.362889428472e-14 
   68       8.821980905074e-10       1.432970440507e-13      -5.137957378468e-12       1.677324258783e-16       1.423777014989e-11       5.036153034876e-11      -2.587723176552e-14 
   69       8.784021671912e-10       1.453573052538e-13      -5.276256883803e-12       1.729364291047e-16       1.375697064681e-11       4.895821295063e-11      -2.642916328659e-14 
   70       8.751250825636e-10       1.472266048962e-13      -5.407391216158e-12       1.782367888231e-16       1.329480532600e-11       4.737325870820e-11      -2.552601825440e-14 
   71       8.723606455103e-10       1.489000366567e-13      -5.531252779810e-12       1.836347223067e-16       1.284940592373e-11       4.565225751287e-11      -2.344987891422e-14 
   72       8.700926067456e-10       1.503733639610e-13      -5.647786032109e-12       1.891314796983e-16       1.241835082937e-11       4.384659982046e-11      -2.052517256089e-14 
   73       8.682941530457e-10       1.516430538963e-13      -5.756990012895e-12       1.947283443824e-16       1.199864044664e-11       4.201368106813e-11      -1.712026374948e-14 
   74       8.669274014826e-10       1.527063111268e-13      -5.858920873917e-12       2.004266333583e-16       1.158667255481e-11       4.021710609126e-11      -1.364904650607e-14 
   75       8.659428936573e-10       1.535611118086e-13      -5.953694408251e-12       2.062276976128e-16       1.117821766992e-11       3.852689354032e-11      -1.057253653845e-14 
   76       8.652914204496e-10       1.542061111870e-13      -6.041375946513e-12       2.121329160160e-16       1.076973345332e-11       3.700392764420e-11      -8.295927431923e-15 
   77       8.649631036981e-10       1.546402719657e-13      -6.121621274399e-12       2.181436748994e-16       1.036263911935e-11       3.564958831822e-11      -6.834567233240e-15 
   78       8.649545554880e-10       1.548632294708e-13      -6.193974525945e-12       2.242613854132e-16       9.959779344223e-12       3.444726457311e-11      -6.089680819327e-15 
   79       8.652569310486e-10       1.548754427748e-13      -6.257975223939e-12       2.304874899100e-16       9.564157141411e-12       3.337717562860e-11      -5.946959811540e-15 
   80       8.658556758339e-10       1.546782260216e-13      -6.313158499702e-12       2.368234621841e-16       9.178936681176e-12       3.241625230937e-11      -6.276011190728e-15 
   81       8.667302726030e-10       1.542737797513e-13      -6.359055312871e-12       2.432708077117e-16       8.807446110016e-12       3.153801844104e-11      -6.929805912297e-15 
   82       8.678539885015e-10       1.536652222248e-13      -6.395192671185e-12       2.498310638909e-16       8.453180370144e-12       3.071247224609e-11      -7.744127521277e-15 
   83       8.691936221418e-10       1.528566207491e-13      -6.421093850266e-12       2.565058002816e-16       8.119804018960e-12       2.990596773987e-11      -8.537020767390e-15 
   84       8.707163692748e-10       1.518531214604e-13      -6.436316925442e-12       2.632964767092e-16       7.810332728069e-12       2.908852451639e-11      -9.147723035449e-15 
   85       8.724122815651e-10       1.506612947791e-13      -6.440577225189e-12       2.702039900215e-16       7.524515699393e-12       2.825740924516e-11      -9.562081942695e-15 
   86       8.742750846014e-10       1.492889049228e-13      -6.433645675222e-12       2.772290522843e-16       7.261022460861e-12       2.741726420877e-11      -9.807015055825e-15 
   87       8.762952590246e-10       1.477448490333e-13      -6.415313142329e-12       2.843723241202e-16       7.018214782319e-12       2.657303264631e-11      -9.912986222672e-15 
   88       8.784599072492e-10       1.460391901560e-13      -6.385391298053e-12       2.916344125591e-16       6.794135691296e-12       2.572996499631e-11      -9.914117764001e-15 
   89       8.807526201839e-10       1.441831902195e-13      -6.343713482375e-12       2.990158688897e-16       6.586498488775e-12       2.489362513954e-11      -9.848302665304e-15 
   90       8.831533439531e-10       1.421893430156e-13      -6.290135567398e-12       3.065171865108e-16       6.392675764961e-12       2.406989664187e-11      -9.757316768593e-15 
   91       8.856382466172e-10       1.400714071785e-13      -6.224536821032e-12       3.141387987820e-16       6.209688415043e-12       2.326498899714e-11      -9.686930964197e-15 
   92       8.881795848941e-10       1.378444391647e-13      -6.146820770671e-12       3.218810768750e-16       6.034194654969e-12       2.248544387001e-11      -9.687023382552e-15 
   93       8.907508914345e-10       1.355244193008e-13      -6.056904708576e-12       3.297442245566e-16       5.863176619529e-12       2.173697900849e-11      -9.799126430371e-15 
   94       8.933437185721e-10       1.331269939584e-13      -5.954684526508e-12       3.377279491028e-16       5.696142139241e-12       2.102080752511e-11      -1.001668176835e-14 
   95       8.959531781329e-10       1.306686042981e-13      -5.840066164471e-12       3.458317366865e-16       5.533235342971e-12       2.033677400195e-11      -1.031898729632e-14 
   96       8.985727858248e-10       1.281669033717e-13      -5.712977196059e-12       3.540549475202e-16       5.374567191731e-12       1.968445791372e-11      -1.068317020801e-14 
   97       9.011944009931e-10       1.256407835159e-13      -5.573367536226e-12       3.623968122921e-16       5.220214070055e-12       1.906316391553e-11      -1.108412670303e-14 
   98       9.038081663760e-10       1.231104037464e-13      -5.421210149054e-12       3.708564286021e-16       5.070216377357e-12       1.847191213062e-11      -1.149446169883e-14 
   99       9.064024478596e-10       1.205972171509e-13      -5.256501755524e-12       3.794327573988e-16       4.924577119302e-12       1.790942843807e-11      -1.188442854266e-14 
  100       9.089637742335e-10       1.181239982838e-13      -5.079263541282e-12       3.881246194152e-16       4.783260499169e-12       1.737413476055e-11      -1.222186872354e-14 
  101       9.114767769461e-10       1.157148705591e-13      -4.889541864414e-12       3.969306916052e-16       4.646190509216e-12       1.686413935206e-11      -1.247215158422e-14 
  102       9.139241298600e-10       1.133953336446e-13      -4.687408963213e-12       4.058495035804e-16       4.513249522051e-12       1.637722708567e-11      -1.259811403314e-14 
  103       9.162864890070e-10       1.111922908555e-13      -4.472963663949e-12       4.148794340454e-16       4.384276881991e-12       1.591084974124e-11      -1.256000025640e-14 
  104       9.185456998849e-10       1.091330642483e-13      -4.246324438983e-12       4.240188338544e-16       4.259116453073e-12       1.546261155740e-11      -1.232576964436e-14 
  105       9.206950425345e-10       1.072422293756e-13      -4.007605988711e-12       4.332664217842e-16       4.137769612132e-12       1.503182150647e-11      -1.190373625747e-14 
  106       9.227302645525e-10       1.055444020321e-13      -3.756940800941e-12       4.426209358292e-16       4.020260392973e-12       1.461813357898e-11      -1.131424660810e-14 
  107       9.246464130922e-10       1.040652284456e-13      -3.494487134238e-12       4.520810092101e-16       3.906587515125e-12       1.422106602614e-11      -1.057975817494e-14 
