# dimensionless total lensed [l(l+1)/2pi] C_l's
# for l=2 to 2500, i.e. number of multipoles equal to 2499
#
# -> if you prefer output in CAMB/HealPix/LensPix units/order, set 'format' to 'camb' in input file
# -> if you don't want to see such a header, set 'headers' to 'no' in input file
# -> for CMB lensing (phi), these are C_l^phi-phi for the lensing potential.
#    Remember the conversion factors:
#    C_l^dd (deflection) = l(l+1) C_l^phi-phi
#    C_l^gg (shear/convergence) = 1/4 (l(l+1))^2 C_l^phi-phi
#
# 1:l     2:TT                     3:EE                     4:TE                     5:BB                     6:phiphi                 7:TPhi                   8:Ephi               
    2       1.275145372877e-09       6.242010037308e-15       2.214477151388e-12       3.051864436171e-19       8.484058877291e-09       9.923630256346e-12      -2.258679545993e-12 
    3       1.241386703440e-09       7.963561220780e-15       2.411560086131e-12       6.103862913787e-19       5.293273017651e-09       6.760663753708e-11      -1.708884757726e-12 
    4       1.191636629683e-09       6.839858387181e-15       2.246992389867e-12       1.017343429861e-18       3.711623978713e-09       7.473805067440e-11      -1.116778962225e-12 
    5       1.139745040792e-09       4.503724180993e-15       1.907544200492e-12       1.526084323079e-18       2.786890176127e-09       6.937625460985e-11      -6.171578429389e-13 
    6       1.089621760472e-09       2.460486345952e-15       1.506226332177e-12       2.136648971178e-18       2.187661087900e-09       6.142849939411e-11      -2.476301713629e-13 
    7       1.042553199031e-09       1.292385336145e-15       1.115172298502e-12       2.849094868982e-18       1.773978825223e-09       5.351895109236e-11      -1.091632351958e-14 
    8       9.987844978618e-10       8.292308002174e-16       7.736039435696e-13       3.663501144650e-18       1.473852143974e-09       4.645049494324e-11       1.100978079396e-13 
    9       9.581461535638e-10       6.784436537748e-16       4.990792775986e-13       4.579972597505e-18       1.247381803470e-09       4.041918558612e-11       1.429415669627e-13 
   10       9.206012131046e-10       5.845359227423e-16       2.952498239251e-13       5.598643347549e-18       1.071527282817e-09       3.532015847770e-11       1.187967315016e-13 
   11       8.858609370854e-10       4.896409396106e-16       1.572243743133e-13       6.719679817759e-18       8.986246128177e-10       2.994918536053e-11       6.682989321523e-14 
   12       8.536622125515e-10       4.252997452604e-16       7.559525217355e-14       7.943282793552e-18       7.878264519866e-10       2.699692256450e-11       1.117065731812e-14 
   13       8.238616737524e-10       4.075444125429e-16       3.935694884559e-14       9.269688341152e-18       6.970897368517e-10       2.201443019296e-11      -3.373650515173e-14 
   14       7.962837714108e-10       4.123163375758e-16       3.740585961390e-14       1.069916741630e-17       6.209763639096e-10       2.035249468555e-11      -5.949943028130e-14 
   15       7.707144629433e-10       4.072491890557e-16       5.948397441859e-14       1.223202405469e-17       5.568765214572e-10       1.816133677389e-11      -6.622500956965e-14 
   16       7.469294157532e-10       3.827611161561e-16       9.680170269609e-14       1.386859210312e-17       5.026130471693e-10       1.362305952951e-11      -5.875142908660e-14 
   17       7.248584198592e-10       3.537133954165e-16       1.420277887470e-13       1.560923052232e-17       4.554964336514e-10       1.276679483984e-11      -4.131303011024e-14 
   18       7.043521887469e-10       3.424126712630e-16       1.893951594673e-13       1.745431815747e-17       4.145181468178e-10       1.199669390362e-11      -2.170149771305e-14 
   19       6.855094342677e-10       3.556939843803e-16       2.351652622943e-13       1.940424260847e-17       3.791827904394e-10       1.043452510426e-11      -4.529167876207e-15 
   20       6.679104713818e-10       3.930301725544e-16       2.759862465218e-13       2.145940064628e-17       3.479679306890e-10       9.152487569886e-12       6.940573275418e-15 
   21       6.516089094298e-10       4.481182405214e-16       3.101395976803e-13       2.362017872044e-17       3.203949905141e-10       8.167696074038e-12       1.217813886286e-14 
   22       6.364710812733e-10       5.121365904647e-16       3.367518302708e-13       2.588695436509e-17       2.958723419220e-10       7.151850248940e-12       1.208530480937e-14 
   23       6.224859335985e-10       5.840938532378e-16       3.556420917085e-13       2.826007756137e-17       2.740730409334e-10       6.142500792723e-12       8.342369039517e-15 
   24       6.094585674226e-10       6.655390441124e-16       3.672906804723e-13       3.073987204776e-17       2.544875860360e-10       5.266641869836e-12       3.163280537226e-15 
   25       5.973911751008e-10       7.579196775685e-16       3.727892044271e-13       3.332661897001e-17       2.369011457063e-10       4.440929520411e-12      -2.134800694540e-15 
   26       5.861825359527e-10       8.623921610321e-16       3.737891030882e-13       3.602055787292e-17       2.210136578938e-10       3.555245801130e-12      -6.487920836191e-15 
   27       5.757725656370e-10       9.785472765311e-16       3.719216411988e-13       3.882187571563e-17       2.066203888347e-10       2.811418374609e-12      -9.506948028247e-15 
   28       5.660166024320e-10       1.105516853922e-15       3.689656666920e-13       4.173070814107e-17       1.934539261027e-10       2.461755560928e-12      -1.112940175207e-14 
   29       5.569433969637e-10       1.243676869023e-15       3.660961327125e-13       4.474714143553e-17       1.814640719124e-10       2.381412870118e-12      -1.179652463364e-14 
   30       5.485128190681e-10       1.393815173890e-15       3.644628351489e-13       4.787120407418e-17       1.705565172137e-10       2.272820481554e-12      -1.226191880145e-14 
   31       5.405803969976e-10       1.556712872173e-15       3.651695687222e-13       5.110287075048e-17       1.605425042726e-10       1.852938918467e-12      -1.324048944988e-14 
   32       5.331498481026e-10       1.732883046142e-15       3.683405990207e-13       5.444209457208e-17       1.513629395157e-10       1.221364227060e-12      -1.443140609024e-14 
   33       5.261914498307e-10       1.922729859317e-15       3.736853131495e-13       5.788877985338e-17       1.429291235428e-10       6.341356949641e-13      -1.511882270516e-14 
   34       5.196102068356e-10       2.126713133058e-15       3.807108268535e-13       6.144278752334e-17       1.351009316914e-10       3.335204388831e-13      -1.461698233263e-14 
   35       5.134043861073e-10       2.345700457736e-15       3.886849945747e-13       6.510399652269e-17       1.278458804536e-10       2.700897107673e-13      -1.298395872590e-14 
   36       5.075477390987e-10       2.580743711744e-15       3.966293805726e-13       6.887225950486e-17       1.211252152226e-10       2.816126723460e-13      -1.056187323529e-14 
   37       5.019754020326e-10       2.832798586982e-15       4.035078719103e-13       7.274741532283e-17       1.148711824233e-10       2.068619296007e-13      -7.760979203710e-15 
   38       4.967044355505e-10       3.102060609407e-15       4.089039232913e-13       7.672939467789e-17       1.090699691868e-10       3.543849855214e-14      -4.937689277096e-15 
   39       4.917437761381e-10       3.388401269510e-15       4.125543763798e-13       8.081814866641e-17       1.036999740644e-10      -1.935938239961e-13      -2.485728684655e-15 
   40       4.870562633670e-10       3.691532109465e-15       4.141660338552e-13       8.501362112179e-17       9.870585255320e-11      -4.309578184177e-13      -8.745851503894e-16 
   41       4.825812791734e-10       4.011204435546e-15       4.135087996104e-13       8.931578347923e-17       9.401760055735e-11      -6.293513555982e-13      -5.103419013057e-16 
   42       4.783222457495e-10       4.347912201416e-15       4.107354027060e-13       9.372475179068e-17       8.962231844518e-11      -7.864008448605e-13      -1.252946180836e-15 
   43       4.742801078646e-10       4.702400043954e-15       4.061630674780e-13       9.824070866317e-17       8.551087788880e-11      -9.145591739485e-13      -2.749318231692e-15 
   44       4.704261463564e-10       5.075476448935e-15       4.001925872051e-13       1.028638750141e-16       8.165653495460e-11      -1.029659935876e-12      -4.558117961173e-15 
   45       4.667192371098e-10       5.467907440396e-15       3.932442592122e-13       1.075945230397e-16       7.802487632522e-11      -1.146638068982e-12      -6.236155026930e-15 
   46       4.631698996254e-10       5.880050729020e-15       3.855312494457e-13       1.124330129227e-16       7.461054047358e-11      -1.264665181326e-12      -7.641174058435e-15 
   47       4.597909796702e-10       6.312118699138e-15       3.772268471669e-13       1.173797720230e-16       7.140906613739e-11      -1.377931905279e-12      -8.710387242444e-15 
   48       4.565780408238e-10       6.764276601045e-15       3.685284960296e-13       1.224352891423e-16       6.840574146054e-11      -1.479709141102e-12      -9.376393581991e-15 
   49       4.535079114593e-10       7.236640035463e-15       3.596587440579e-13       1.276001179986e-16       6.557484243086e-11      -1.562301954904e-12      -9.567056678091e-15 
   50       4.505503285592e-10       7.729315940599e-15       3.507970128515e-13       1.328748472419e-16       6.288749705277e-11      -1.619523565902e-12      -9.237691777121e-15 
   51       4.477099661894e-10       8.242544505234e-15       3.418508673978e-13       1.382599928424e-16       6.033956122539e-11      -1.655015940821e-12      -8.478210314554e-15 
   52       4.449933035472e-10       8.776591428073e-15       3.326243021315e-13       1.437560824987e-16       5.792999304932e-11      -1.676108040587e-12      -7.434847284638e-15 
   53       4.423957083602e-10       9.331707324636e-15       3.228792444356e-13       1.493636884010e-16       5.565254120933e-11      -1.691563898952e-12      -6.281758911912e-15 
   54       4.399006001887e-10       9.908127258900e-15       3.123332490543e-13       1.550834291310e-16       5.349538932893e-11      -1.711655112895e-12      -5.222420868941e-15 
   55       4.374879489617e-10       1.050609101307e-14       3.007175021557e-13       1.609158956984e-16       5.144487955370e-11      -1.745330287770e-12      -4.444837094107e-15 
   56       4.351641596817e-10       1.112591086653e-14       2.879729893226e-13       1.668614037779e-16       4.949858127651e-11      -1.790733869714e-12      -3.970932893166e-15 
   57       4.329381461812e-10       1.176791983429e-14       2.740990214841e-13       1.729201832513e-16       4.765484602340e-11      -1.842458960295e-12      -3.772196939054e-15 
   58       4.308121836437e-10       1.243245273627e-14       2.590972380737e-13       1.790924476475e-16       4.590882023533e-11      -1.894204271214e-12      -3.812200052820e-15 
   59       4.287814356166e-10       1.311984653694e-14       2.429716511687e-13       1.853783930868e-16       4.425224855374e-11      -1.938733509049e-12      -4.046193834349e-15 
   60       4.268334810250e-10       1.383044068493e-14       2.257286896285e-13       1.917781972262e-16       4.267327710625e-11      -1.967834759990e-12      -4.420709293094e-15 
   61       4.249543005228e-10       1.456447429807e-14       2.073793535018e-13       1.982919684599e-16       4.115977567617e-11      -1.974583468185e-12      -4.879924351804e-15 
   62       4.231488757744e-10       1.532174998219e-14       1.879461424822e-13       2.049195825854e-16       3.971062062576e-11      -1.960816822567e-12      -5.387344538399e-15 
   63       4.214243956224e-10       1.610189481210e-14       1.674577680216e-13       2.116608074362e-16       3.832660699875e-11      -1.931272639080e-12      -5.908298668378e-15 
   64       4.197839420272e-10       1.690445395216e-14       1.459472891888e-13       2.185153468090e-16       3.700706973760e-11      -1.891465643856e-12      -6.403416495720e-15 
   65       4.182262220308e-10       1.772888772294e-14       1.234522237658e-13       2.254828378303e-16       3.574979862059e-11      -1.847719949239e-12      -6.828442114833e-15 
   66       4.167452997193e-10       1.857456866781e-14       1.000146593437e-13       2.325628483228e-16       3.455095319908e-11      -1.807201529803e-12      -7.134047362500e-15 
   67       4.153303281865e-10       1.944077861950e-14       7.568136441924e-14       2.397548741717e-16       3.340497773462e-11      -1.777950698376e-12      -7.265645219824e-15 
   68       4.139701607201e-10       2.032684931718e-14       5.049208325143e-14       2.470584272942e-16       3.230613367796e-11      -1.766829626645e-12      -7.179177319983e-15 
   69       4.126688684869e-10       2.123262390089e-14       2.444141794850e-14       2.544733261326e-16       3.125364782985e-11      -1.772809377166e-12      -6.892608280719e-15 
   70       4.114329000732e-10       2.215808408795e-14      -2.490613221069e-15       2.619994595621e-16       3.024745931550e-11      -1.792374738943e-12      -6.444578207056e-15 
   71       4.102663397865e-10       2.310321562114e-14      -3.032763066132e-14       2.696367011853e-16       2.928665143035e-11      -1.821468356953e-12      -5.879569758389e-15 
   72       4.091707644070e-10       2.406800900662e-14      -5.909708455834e-14       2.773849090161e-16       2.836940794661e-11      -1.855469884496e-12      -5.248130095335e-15 
   73       4.081450999388e-10       2.505246025191e-14      -8.883044598965e-14       2.852439251632e-16       2.749296941974e-11      -1.889175135552e-12      -4.607092826586e-15 
   74       4.071854783615e-10       2.605657160388e-14      -1.195633980337e-13       2.932135755136e-16       2.665358949505e-11      -1.916775237136e-12      -4.019799955763e-15 
   75       4.062850943818e-10       2.708035228668e-14      -1.513360268794e-13       3.012936694165e-16       2.584649121415e-11      -1.931835781650e-12      -3.556323828267e-15 
   76       4.054370738976e-10       2.812373127196e-14      -1.841816317055e-13       3.094841263037e-16       2.506706598931e-11      -1.928946946059e-12      -3.276104445401e-15 
   77       4.046439999327e-10       2.918627559397e-14      -2.180903760528e-13       3.177853829075e-16       2.431481952757e-11      -1.909067327197e-12      -3.171715485089e-15 
   78       4.039098716194e-10       3.026742176991e-14      -2.530393245164e-13       3.261980600711e-16       2.359006942577e-11      -1.875121232048e-12      -3.215199333807e-15 
   79       4.032371664175e-10       3.136655816219e-14      -2.890031943605e-13       3.347228446491e-16       2.289274842068e-11      -1.830427360211e-12      -3.374605601397e-15 
   80       4.026267586239e-10       3.248302391251e-14      -3.259543132467e-13       3.433604917946e-16       2.222238617741e-11      -1.778712220774e-12      -3.613852480790e-15 
   81       4.020778378810e-10       3.361610787600e-14      -3.638625769620e-13       3.521118272450e-16       2.157809107789e-11      -1.724123549202e-12      -3.892588107715e-15 
   82       4.015878276865e-10       3.476504755536e-14      -4.026954071471e-13       3.609777496094e-16       2.095853200929e-11      -1.671243724217e-12      -4.166051920415e-15 
   83       4.011523039016e-10       3.592902803491e-14      -4.424177090241e-13       3.699592326546e-16       2.036192015244e-11      -1.625103184684e-12      -4.384936019368e-15 
   84       4.007668773705e-10       3.710723730388e-14      -4.829963688586e-13       3.790572339506e-16       1.978646184619e-11      -1.590071736873e-12      -4.506302576727e-15 
   85       4.004333788732e-10       3.829904509851e-14      -5.244146955983e-13       3.882723983946e-16       1.923184333233e-11      -1.566291907332e-12      -4.528719259482e-15 
   86       4.001545548644e-10       3.950385189179e-14      -5.666603069805e-13       3.976053095015e-16       1.869795990436e-11      -1.552676165535e-12      -4.462721407062e-15 
   87       3.999321467616e-10       4.072103502397e-14      -6.097208361867e-13       4.070565793777e-16       1.818445657355e-11      -1.547971100555e-12      -4.320320345040e-15 
   88       3.997668424641e-10       4.194994858443e-14      -6.535839658699e-13       4.166268494335e-16       1.769071777467e-11      -1.550751978955e-12      -4.115050560812e-15 
   89       3.996582278728e-10       4.318992329347e-14      -6.982374621796e-13       4.263167910968e-16       1.721585707162e-11      -1.559417302692e-12      -3.862016879271e-15 
   90       3.996047384092e-10       4.444026638418e-14      -7.436692087891e-13       4.361271065250e-16       1.675870686314e-11      -1.572183367008e-12      -3.577941638486e-15 
   91       3.996036105345e-10       4.570026148426e-14      -7.898672409206e-13       4.460585293183e-16       1.631780808848e-11      -1.587078818335e-12      -3.281211865381e-15 
   92       3.996508332694e-10       4.696916849786e-14      -8.368197793722e-13       4.561118252322e-16       1.589139993306e-11      -1.601939212184e-12      -2.991926451409e-15 
   93       3.997427009451e-10       4.824622610062e-14      -8.845132318335e-13       4.662876504090e-16       1.547783551789e-11      -1.614814816492e-12      -2.728005789569e-15 
   94       3.998808439006e-10       4.953065991060e-14      -9.329257790688e-13       4.765861001315e-16       1.507692284379e-11      -1.625276001834e-12      -2.492748908079e-15 
   95       4.000678682874e-10       5.082167533353e-14      -9.820328825178e-13       4.870070932043e-16       1.468876743050e-11      -1.633295033627e-12      -2.285483444062e-15 
   96       4.003057961076e-10       5.211845497788e-14      -1.031809237096e-12       4.975505071609e-16       1.431335991560e-11      -1.638850547500e-12      -2.105329653935e-15 
   97       4.005960387130e-10       5.342015857255e-14      -1.082228777319e-12       5.082161770216e-16       1.395057160758e-11      -1.641927779753e-12      -1.951193539139e-15 
   98       4.009393703044e-10       5.472592288464e-14      -1.133264683423e-12       5.190038940503e-16       1.360015003890e-11      -1.642518797798e-12      -1.821759971864e-15 
   99       4.013359014305e-10       5.603486163707e-14      -1.184889387493e-12       5.299134045109e-16       1.326171451916e-11      -1.640622730613e-12      -1.715485820789e-15 
  100       4.017850524873e-10       5.734606542635e-14      -1.237074579583e-12       5.409444084250e-16       1.293475168809e-11      -1.636245999193e-12      -1.630593076803e-15 
  101       4.022855272171e-10       5.865860164025e-14      -1.289791213840e-12       5.520965583285e-16       1.261861106871e-11      -1.629402546996e-12      -1.565061978736e-15 
  102       4.028352862076e-10       5.997151437554e-14      -1.343009514626e-12       5.633694580285e-16       1.231250062037e-11      -1.620114070395e-12      -1.516624139096e-15 
  103       4.034315203911e-10       6.128382435564e-14      -1.396698982646e-12       5.747626613606e-16       1.201548229186e-11      -1.608410249127e-12      -1.482755669791e-15 
  104       4.040716600519e-10       6.259455304007e-14      -1.450828689818e-12       5.862758923236e-16       1.172669009913e-11      -1.594374958672e-12      -1.461078738665e-15 
  105       4.047566141580e-10       6.390279883892e-14      -1.505368196078e-12       5.979097420293e-16       1.144602748686e-11      -1.578291520619e-12      -1.450642823157e-15 
  106       4.054879212483e-10       6.520767108835e-14      -1.560286768413e-12       6.096650640216e-16       1.117355631849e-11      -1.560517594475e-12      -1.450804525458e-15 
  107       4.062667380599e-10       6.650826695957e-14      -1.615553112358e-12       6.215427624807e-16       1.090928078638e-11      -1.541441674750e-12      -1.460832240164e-15 
