# dimensionless total [l(l+1)/2pi] C_l's
# for l=2 to 3000, i.e. number of multipoles equal to 2999
#
# -> if you prefer output in CAMB/HealPix/LensPix units/order, set 'format' to 'camb' in input file
# -> if you don't want to see such a header, set 'headers' to 'no' in input file
# -> for CMB lensing (phi), these are C_l^phi-phi for the lensing potential.
#    Remember the conversion factors:
#    C_l^dd (deflection) = l(l+1) C_l^phi-phi
#    C_l^gg (shear/convergence) = 1/4 (l(l+1))^2 C_l^phi-phi
#
# 1:l     2:TT                     3:EE                     4:TE                     5:BB                     6:phiphi                 7:TPhi                   8:Ephi               
    2       1.401171885417e-10       4.215973893609e-15       3.566752631560e-13       0.000000000000e+00       9.840066913013e-09       4.997520186536e-10      -1.861065124841e-12 
    3       1.329285428862e-10       5.398659319755e-15       4.037293960276e-13       0.000000000000e+00       6.222684135658e-09       3.630671149487e-10      -1.413640928022e-12 
    4       1.261306230825e-10       4.666350125467e-15       3.802410494490e-13       0.000000000000e+00       4.431983588943e-09       2.809803126166e-10      -9.295277594881e-13 
    5       1.211502830554e-10       3.116156697903e-15       3.261582263808e-13       0.000000000000e+00       3.380332788214e-09       2.264566561821e-10      -5.223888900107e-13 
    6       1.178697409699e-10       1.746967533783e-15       2.646835577244e-13       0.000000000000e+00       2.692387884431e-09       1.877557235556e-10      -2.235640198019e-13 
    7       1.159404557081e-10       9.413689421652e-16       2.095692237118e-13       0.000000000000e+00       2.211099814318e-09       1.589372738787e-10      -3.427800796165e-14 
    8       1.149661609406e-10       5.960922497344e-16       1.672163584160e-13       0.000000000000e+00       1.857685796425e-09       1.367852880390e-10       6.112666564782e-14 
    9       1.147825203337e-10       4.702870786080e-16       1.393579326266e-13       0.000000000000e+00       1.588340940922e-09       1.194132577134e-10       8.689718215990e-14 
   10       1.152215859664e-10       4.067722598227e-16       1.248137910406e-13       0.000000000000e+00       1.377114865126e-09       1.054978499248e-10       6.965371278992e-14 
   11       1.160475301260e-10       3.626764614515e-16       1.209755952634e-13       0.000000000000e+00       1.136732940578e-09       9.317356538656e-11       3.397872067310e-14 
   12       1.172548403117e-10       3.456571528630e-16       1.247212931949e-13       0.000000000000e+00       1.004183472049e-09       8.355382619607e-11      -2.748175647947e-15 
   13       1.187503075884e-10       3.598443708282e-16       1.331655870506e-13       0.000000000000e+00       8.944720078527e-10       7.531374318645e-11      -2.954514663160e-14 
   14       1.204792224424e-10       3.963274797465e-16       1.440780007962e-13       0.000000000000e+00       8.024511845891e-10       6.836123654253e-11      -4.205615541282e-14 
   15       1.224201940115e-10       4.473906669458e-16       1.558874502294e-13       0.000000000000e+00       7.243933196342e-10       6.240216536408e-11      -4.156499994117e-14 
   16       1.244925785517e-10       5.150663062615e-16       1.679376998278e-13       0.000000000000e+00       6.575208293322e-10       5.715859727154e-11      -3.269148032093e-14 
   17       1.267836529919e-10       6.066553183861e-16       1.800133109743e-13       0.000000000000e+00       5.997252373264e-10       5.248292737164e-11      -2.100500087449e-14 
   18       1.291741490390e-10       7.273822814964e-16       1.921536758637e-13       0.000000000000e+00       5.491843297905e-10       4.838654873136e-11      -1.105568236254e-14 
   19       1.316657042297e-10       8.777105779033e-16       2.045556691534e-13       0.000000000000e+00       5.052359561813e-10       4.482021622333e-11      -5.031432078406e-15 
   20       1.342673908650e-10       1.055998363842e-15       2.174177190671e-13       0.000000000000e+00       4.662541800952e-10       4.160905102738e-11      -4.130065532832e-15 
   21       1.369727234340e-10       1.262506635238e-15       2.306225205735e-13       0.000000000000e+00       4.316955333577e-10       3.872921016174e-11      -7.319611776824e-15 
   22       1.397424411460e-10       1.497735316024e-15       2.438741042974e-13       0.000000000000e+00       4.008057334802e-10       3.615940779556e-11      -1.238663371606e-14 
   23       1.425962690577e-10       1.762113659227e-15       2.567969595603e-13       0.000000000000e+00       3.732078153683e-10       3.387060351139e-11      -1.741345873999e-14 
   24       1.455481633700e-10       2.055948655603e-15       2.689552373095e-13       0.000000000000e+00       3.483077448977e-10       3.179885027630e-11      -2.055499307456e-14 
   25       1.485865040247e-10       2.380373563666e-15       2.800476458304e-13       0.000000000000e+00       3.258472161994e-10       2.989892402829e-11      -2.137282232537e-14 
   26       1.516781915110e-10       2.737054743413e-15       2.898300002940e-13       0.000000000000e+00       3.054541200797e-10       2.812000060556e-11      -2.006530044441e-14 
   27       1.548261593981e-10       3.129089985945e-15       2.982177145311e-13       0.000000000000e+00       2.869105123489e-10       2.647378785187e-11      -1.745876310247e-14 
   28       1.580343029906e-10       3.560003414513e-15       3.052053705495e-13       0.000000000000e+00       2.699229839138e-10       2.497811796299e-11      -1.465148889624e-14 
   29       1.613096981462e-10       4.032086490735e-15       3.108440075104e-13       0.000000000000e+00       2.544219596720e-10       2.362633258174e-11      -1.227198027847e-14 
   30       1.646474883766e-10       4.547220779254e-15       3.152397909366e-13       0.000000000000e+00       2.402578203693e-10       2.238818958971e-11      -1.089254991491e-14 
   31       1.680326568020e-10       5.107199795984e-15       3.184973952565e-13       0.000000000000e+00       2.271618362250e-10       2.122371530223e-11      -1.099084123322e-14 
   32       1.714709888339e-10       5.713670546495e-15       3.205180217117e-13       0.000000000000e+00       2.150786888492e-10       2.013335899055e-11      -1.220133155396e-14 
   33       1.749671051347e-10       6.368150165041e-15       3.211239850095e-13       0.000000000000e+00       2.039343041691e-10       1.912470809012e-11      -1.376377804418e-14 
   34       1.785178244158e-10       7.072096579252e-15       3.201210742451e-13       0.000000000000e+00       1.935860051853e-10       1.819841198701e-11      -1.488455875031e-14 
   35       1.821214901740e-10       7.827143737264e-15       3.173423598554e-13       0.000000000000e+00       1.839893540412e-10       1.734702333980e-11      -1.537827692928e-14 
   36       1.857700368508e-10       8.634936848038e-15       3.126172413556e-13       0.000000000000e+00       1.750756974631e-10       1.655440065109e-11      -1.524571399763e-14 
   37       1.894519366936e-10       9.497094389498e-15       3.057905564328e-13       0.000000000000e+00       1.667386264360e-10       1.580158456063e-11      -1.453581724448e-14 
   38       1.931742700864e-10       1.041530830588e-14       2.968316563660e-13       0.000000000000e+00       1.589622879939e-10       1.508865979936e-11      -1.344607761544e-14 
   39       1.969468133755e-10       1.139127079494e-14       2.857624273117e-13       0.000000000000e+00       1.517271596210e-10       1.441936361848e-11      -1.226093240420e-14 
   40       2.007755192899e-10       1.242664397728e-14       2.726300839971e-13       0.000000000000e+00       1.449708543462e-10       1.379490654619e-11      -1.133022234492e-14 
   41       2.046623431736e-10       1.352302094605e-14       2.574788728439e-13       0.000000000000e+00       1.386111603890e-10       1.321413791946e-11      -1.097122316882e-14 
   42       2.086058047296e-10       1.468180032143e-14       2.402503717395e-13       0.000000000000e+00       1.326332772023e-10       1.267472144788e-11      -1.112645448357e-14 
   43       2.125998031908e-10       1.590426619968e-14       2.208533467498e-13       0.000000000000e+00       1.270246084683e-10       1.217191231939e-11      -1.160142850857e-14 
   44       2.166328785154e-10       1.719161565027e-14       1.991903088395e-13       0.000000000000e+00       1.217484846887e-10       1.169794680375e-11      -1.215429876107e-14 
   45       2.206931471481e-10       1.854496199918e-14       1.751660058854e-13       0.000000000000e+00       1.167581483898e-10       1.124441941398e-11      -1.255356718848e-14 
   46       2.247859478862e-10       1.996535829581e-14       1.487171094807e-13       0.000000000000e+00       1.120482671468e-10       1.081079569462e-11      -1.277858737928e-14 
   47       2.289206925886e-10       2.145377187717e-14       1.197905491432e-13       0.000000000000e+00       1.076155209222e-10       1.039805907604e-11      -1.287408892377e-14 
   48       2.331057871242e-10       2.301107174756e-14       8.833530408605e-14       0.000000000000e+00       1.034430175684e-10       1.000625352454e-11      -1.289536967041e-14 
   49       2.373484841328e-10       2.463802378999e-14       5.430241905291e-14       0.000000000000e+00       9.949926998457e-11       9.634406956511e-12      -1.290889614083e-14 
   50       2.416539023978e-10       2.633534757090e-14       1.764178302971e-14       0.000000000000e+00       9.574816418832e-11       9.281026085303e-12      -1.297721306936e-14 
   51       2.460221127578e-10       2.810391604111e-14      -2.170860217373e-14       0.000000000000e+00       9.218442630675e-11       8.945916991730e-12      -1.310745011173e-14 
   52       2.504500066870e-10       2.994460176411e-14      -6.381477605433e-14       0.000000000000e+00       8.880601465291e-11       8.628726343564e-12      -1.328987571858e-14 
   53       2.549318785168e-10       3.185821821530e-14      -1.087439701436e-13       0.000000000000e+00       8.560347660097e-11       8.328364638089e-12      -1.351223168135e-14 
   54       2.594592389788e-10       3.384551789196e-14      -1.565647445070e-13       0.000000000000e+00       8.255944296305e-11       8.042956507232e-12      -1.375959515310e-14 
   55       2.640237581077e-10       3.590716888605e-14      -2.073370338799e-13       0.000000000000e+00       7.965424357455e-11       7.770419502673e-12      -1.401617437413e-14 
   56       2.686273772234e-10       3.804368211756e-14      -2.610790776979e-13       0.000000000000e+00       7.688554601176e-11       7.510482671439e-12      -1.427153433941e-14 
   57       2.732743823884e-10       4.025546271382e-14      -3.177925138655e-13       0.000000000000e+00       7.425270991463e-11       7.263082393362e-12      -1.451567603926e-14 
   58       2.779684320071e-10       4.254282729301e-14      -3.774714982997e-13       0.000000000000e+00       7.175083189822e-11       7.027753175789e-12      -1.473717698057e-14 
   59       2.827124922917e-10       4.490600123509e-14      -4.401024482985e-13       0.000000000000e+00       6.937047841813e-11       6.803602444948e-12      -1.492312854679e-14 
   60       2.875087727286e-10       4.734511595253e-14      -5.056637859091e-13       0.000000000000e+00       6.709741863605e-11       6.589285337316e-12      -1.505907335794e-14 
   61       2.923589332323e-10       4.986016127480e-14      -5.741351545504e-13       0.000000000000e+00       6.491676477438e-11       6.383405219682e-12      -1.513227030762e-14 
   62       2.972649059395e-10       5.245083628623e-14      -6.455280669311e-13       0.000000000000e+00       6.282708351189e-11       6.185877333157e-12      -1.514248778783e-14 
   63       3.022281441982e-10       5.511666001177e-14      -7.198617122957e-13       0.000000000000e+00       6.082899242243e-11       5.996827893517e-12      -1.509353298892e-14 
   64       3.072493123506e-10       5.785700927790e-14      -7.971541332861e-13       0.000000000000e+00       5.892090722088e-11       5.816183903150e-12      -1.499018009623e-14 
   65       3.123282298199e-10       6.067111455928e-14      -8.774222698888e-13       0.000000000000e+00       5.709891447498e-11       5.643661450469e-12      -1.483821323473e-14 
   66       3.174638151964e-10       6.355805582532e-14      -9.606820033826e-13       0.000000000000e+00       5.535664431714e-11       5.478754009334e-12      -1.464446941366e-14 
   67       3.226540303241e-10       6.651675838688e-14      -1.046948200286e-12       0.000000000000e+00       5.368514315620e-11       5.320720738462e-12      -1.441688147118e-14 
   68       3.278967897145e-10       6.954611713583e-14      -1.136230144171e-12       0.000000000000e+00       5.207537591640e-11       5.168792615141e-12      -1.416375095797e-14 
   69       3.331930277504e-10       7.264540778083e-14      -1.228516657997e-12       0.000000000000e+00       5.052660604284e-11       5.022865492675e-12      -1.389129970798e-14 
   70       3.385441553883e-10       7.581395186027e-14      -1.323788032271e-12       0.000000000000e+00       4.903949264146e-11       4.882927100417e-12      -1.360569701959e-14 
   71       3.439511191559e-10       7.905099486802e-14      -1.422020297763e-12       0.000000000000e+00       4.761355223049e-11       4.748845615322e-12      -1.331380865368e-14 
   72       3.494143699275e-10       8.235570538376e-14      -1.523185151499e-12       0.000000000000e+00       4.624709870360e-11       4.620363532572e-12      -1.302322008358e-14 
   73       3.549338316988e-10       8.572717420328e-14      -1.627249882750e-12       0.000000000000e+00       4.493718329302e-11       4.497091536199e-12      -1.274225974510e-14 
   74       3.605088703623e-10       8.916441346885e-14      -1.734177299025e-12       0.000000000000e+00       4.367953453267e-11       4.378502369711e-12      -1.248002228648e-14 
   75       3.661382624825e-10       9.266635579952e-14      -1.843925652055e-12       0.000000000000e+00       4.246849822129e-11       4.263924706717e-12      -1.224639181843e-14 
   76       3.718207729333e-10       9.623180778828e-14      -1.956452661760e-12       0.000000000000e+00       4.129850329664e-11       4.152720045906e-12      -1.204965703717e-14 
   77       3.775570784419e-10       9.985930262572e-14      -2.071728598885e-12       0.000000000000e+00       4.016890077611e-11       4.044864186170e-12      -1.188880311974e-14 
   78       3.833481397128e-10       1.035472188967e-13      -2.189725464665e-12       0.000000000000e+00       3.907990224509e-11       3.940461143076e-12      -1.175984992869e-14 
   79       3.891946052473e-10       1.072938220532e-13      -2.310413114358e-12       0.000000000000e+00       3.803110394562e-11       3.839567193406e-12      -1.165810973392e-14 
   80       3.950967926034e-10       1.110972626089e-13      -2.433759267272e-12       0.000000000000e+00       3.702145802962e-11       3.742188498851e-12      -1.157816108201e-14 
   81       4.010546696563e-10       1.149555743338e-13      -2.559729516780e-12       0.000000000000e+00       3.604924381204e-11       3.648278729690e-12      -1.151382266569e-14 
   82       4.070678358591e-10       1.188666724487e-13      -2.688287340348e-12       0.000000000000e+00       3.511203902401e-11       3.557736688484e-12      -1.145812719318e-14 
   83       4.131355035028e-10       1.228283518200e-13      -2.819394109553e-12       0.000000000000e+00       3.420669106606e-11       3.470403933761e-12      -1.140329525761e-14 
   84       4.192568361756e-10       1.268383540600e-13      -2.953007710301e-12       0.000000000000e+00       3.333012146380e-11       3.386110852464e-12      -1.134241393183e-14 
   85       4.254320696579e-10       1.308945855642e-13      -3.089078118695e-12       0.000000000000e+00       3.248195543401e-11       3.304828858244e-12      -1.127484952362e-14 
   86       4.316615433533e-10       1.349949324779e-13      -3.227551106702e-12       0.000000000000e+00       3.166227756588e-11       3.226539184886e-12      -1.120168840353e-14 
   87       4.379453470638e-10       1.391371943665e-13      -3.368369553614e-12       0.000000000000e+00       3.087082285116e-11       3.151185141864e-12      -1.112411454464e-14 
   88       4.442833082525e-10       1.433190835678e-13      -3.511473432715e-12       0.000000000000e+00       3.010696194075e-11       3.078670552301e-12      -1.104341204271e-14 
   89       4.506749793080e-10       1.475382245450e-13      -3.656799797937e-12       0.000000000000e+00       2.936968640127e-11       3.008858190919e-12      -1.096096763650e-14 
   90       4.571196248079e-10       1.517921532394e-13      -3.804282770533e-12       0.000000000000e+00       2.865759397162e-11       2.941568221990e-12      -1.087827322797e-14 
   91       4.636162087825e-10       1.560783164228e-13      -3.953853525738e-12       0.000000000000e+00       2.796887381958e-11       2.876576637291e-12      -1.079692840255e-14 
   92       4.701633819786e-10       1.603940710501e-13      -4.105440279430e-12       0.000000000000e+00       2.730129179838e-11       2.813613694054e-12      -1.071864294936e-14 
   93       4.767598171558e-10       1.647367291392e-13      -4.258969955092e-12       0.000000000000e+00       2.665274433014e-11       2.752427031569e-12      -1.064486584893e-14 
   94       4.834053003255e-10       1.691037015350e-13      -4.414373500432e-12       0.000000000000e+00       2.602304737146e-11       2.692985272578e-12      -1.057560293218e-14 
   95       4.900997808498e-10       1.734923746712e-13      -4.571581349447e-12       0.000000000000e+00       2.541239050125e-11       2.635302297959e-12      -1.051042522953e-14 
   96       4.968430301801e-10       1.779000669481e-13      -4.730521822974e-12       0.000000000000e+00       2.482078542260e-11       2.579374631351e-12      -1.044882408667e-14 
   97       5.036346338987e-10       1.823240287097e-13      -4.891121138422e-12       0.000000000000e+00       2.424805902488e-11       2.525180764939e-12      -1.039020855746e-14 
   98       5.104739837595e-10       1.867614422220e-13      -5.053303419499e-12       0.000000000000e+00       2.369384644573e-11       2.472680485236e-12      -1.033390279667e-14 
   99       5.173602697293e-10       1.912094216504e-13      -5.216990705943e-12       0.000000000000e+00       2.315758413306e-11       2.421814198876e-12      -1.027914345287e-14 
  100       5.242924720286e-10       1.956650130368e-13      -5.382102963252e-12       0.000000000000e+00       2.263850290712e-11       2.372502258393e-12      -1.022507706120e-14 
  101       5.312693531731e-10       2.001251942780e-13      -5.548558092410e-12       0.000000000000e+00       2.213562102248e-11       2.324644288010e-12      -1.017075743626e-14 
  102       5.382894500147e-10       2.045868751027e-13      -5.716271939620e-12       0.000000000000e+00       2.164773723011e-11       2.278118509424e-12      -1.011514306486e-14 
  103       5.453510657824e-10       2.090468970495e-13      -5.885158306030e-12       0.000000000000e+00       2.117342383932e-11       2.232781067593e-12      -1.005709449889e-14 
  104       5.524525517902e-10       2.135020988372e-13      -6.055129930680e-12       0.000000000000e+00       2.071136378854e-11       2.188501357822e-12      -9.995639564962e-15 
  105       5.595932130409e-10       2.179495225819e-13      -6.226101569592e-12       0.000000000000e+00       2.026142865774e-11       2.145274894120e-12      -9.930815410330e-15 
  106       5.667725106883e-10       2.223862355249e-13      -6.397987352694e-12       0.000000000000e+00       1.982373402327e-11       2.103124501768e-12      -9.862935874089e-15 
  107       5.739897785761e-10       2.268092678151e-13      -6.570699867925e-12       0.000000000000e+00       1.939830533368e-11       2.062065402299e-12      -9.792334159735e-15 
