# dimensionless total [l(l+1)/2pi] C_l's
# for l=2 to 3000, i.e. number of multipoles equal to 2999
#
# -> if you prefer output in CAMB/HealPix/LensPix units/order, set 'format' to 'camb' in input file
# -> if you don't want to see such a header, set 'headers' to 'no' in input file
# -> for CMB lensing (phi), these are C_l^phi-phi for the lensing potential.
#    Remember the conversion factors:
#    C_l^dd (deflection) = l(l+1) C_l^phi-phi
#    C_l^gg (shear/convergence) = 1/4 (l(l+1))^2 C_l^phi-phi
#
# 1:l     2:TT                     3:EE                     4:TE                     5:BB                     6:phiphi                 7:TPhi                   8:Ephi               
    2       1.280334167846e-10       2.043882251227e-15       2.272057638502e-13       0.000000000000e+00       8.707263324464e-09       4.784466877977e-10      -1.289339246070e-12 
    3       1.211971045619e-10       2.633060444503e-15       2.599776928912e-13       0.000000000000e+00       5.556499752844e-09       3.423886421855e-10      -9.766483850854e-13 
    4       1.150682240400e-10       2.292828151693e-15       2.469660520482e-13       0.000000000000e+00       3.929620599071e-09       2.612317147842e-10      -6.395391595969e-13 
    5       1.107052506102e-10       1.553474412577e-15       2.149676818260e-13       0.000000000000e+00       2.968774407814e-09       2.079599525666e-10      -3.559646497466e-13 
    6       1.079242258145e-10       9.001886066682e-16       1.790446619262e-13       0.000000000000e+00       2.343202189282e-09       1.706239832140e-10      -1.474490544387e-13 
    7       1.064104813275e-10       5.199276792471e-16       1.477327851089e-13       0.000000000000e+00       1.907212943365e-09       1.432331141164e-10      -1.507998265953e-14 
    8       1.058031386839e-10       3.613087776855e-16       1.246489746188e-13       0.000000000000e+00       1.588375671971e-09       1.223698453420e-10       5.177842078705e-14 
    9       1.059043859671e-10       3.053106953570e-16       1.105070035063e-13       0.000000000000e+00       1.347165132382e-09       1.059792231400e-10       6.974087451934e-14 
   10       1.065511609542e-10       2.757465921590e-16       1.044285756708e-13       0.000000000000e+00       1.159895503834e-09       9.285384306101e-11       5.716409888694e-14 
   11       1.076255990062e-10       2.552338106655e-16       1.048511403619e-13       0.000000000000e+00       9.715020294519e-10       8.205183297660e-11       3.117190538752e-14 
   12       1.091024247041e-10       2.524811719874e-16       1.099627744980e-13       0.000000000000e+00       8.539236146516e-10       7.318446572491e-11       3.823692767694e-15 
   13       1.108386020024e-10       2.733470721463e-16       1.180529941516e-13       0.000000000000e+00       7.569844319033e-10       6.573509313579e-11      -1.663676213504e-14 
   14       1.127738081579e-10       3.149044357650e-16       1.278608174077e-13       0.000000000000e+00       6.759817046045e-10       5.923892401747e-11      -2.729895208073e-14 
   15       1.149325849807e-10       3.728888014894e-16       1.385547199654e-13       0.000000000000e+00       6.075174454249e-10       5.373477260448e-11      -2.853623684267e-14 
   16       1.173377288749e-10       4.474283553998e-16       1.495283325053e-13       0.000000000000e+00       5.490706197075e-10       4.905319828848e-11      -2.334560403380e-14 
   17       1.198309226438e-10       5.418328810351e-16       1.605869740613e-13       0.000000000000e+00       4.987329021315e-10       4.498606098524e-11      -1.549277825717e-14 
   18       1.224815914126e-10       6.587636583960e-16       1.716841511617e-13       0.000000000000e+00       4.548673276777e-10       4.131600688514e-11      -8.485724654004e-15 
   19       1.253064227376e-10       7.991059339552e-16       1.828161655458e-13       0.000000000000e+00       4.168377931412e-10       3.804497985035e-11      -4.006590615720e-15 
   20       1.282276439519e-10       9.628672537762e-16       1.939699593553e-13       0.000000000000e+00       3.832158350283e-10       3.517014344089e-11      -2.988121220151e-15 
   21       1.312566749650e-10       1.150865796302e-15       2.050664771387e-13       0.000000000000e+00       3.535056808064e-10       3.265725212466e-11      -4.859692696951e-15 
   22       1.344025432477e-10       1.364106629963e-15       2.159641078362e-13       0.000000000000e+00       3.270289826233e-10       3.041614795695e-11      -8.249981860842e-15 
   23       1.376519455168e-10       1.604153715678e-15       2.264299749496e-13       0.000000000000e+00       3.034440128381e-10       2.839726454486e-11      -1.188480352818e-14 
   24       1.409685117811e-10       1.872652547294e-15       2.361841498547e-13       0.000000000000e+00       2.822266923305e-10       2.654241660172e-11      -1.447408970304e-14 
   25       1.443665371711e-10       2.170875892817e-15       2.450385899885e-13       0.000000000000e+00       2.631439449823e-10       2.484662704366e-11      -1.557782254402e-14 
   26       1.478605954214e-10       2.500088146333e-15       2.528345668619e-13       0.000000000000e+00       2.458667455702e-10       2.330603069097e-11      -1.514350932855e-14 
   27       1.514461345846e-10       2.862473489091e-15       2.594595863081e-13       0.000000000000e+00       2.302001549575e-10       2.191240876987e-11      -1.362866141731e-14 
   28       1.551042410018e-10       3.260495080415e-15       2.648289389198e-13       0.000000000000e+00       2.158861405523e-10       2.064556419262e-11      -1.172169256977e-14 
   29       1.588383356890e-10       3.696124658705e-15       2.689076760629e-13       0.000000000000e+00       2.028596274318e-10       1.949374950109e-11      -9.918565139066e-15 
   30       1.626475771218e-10       4.171173178743e-15       2.716933420569e-13       0.000000000000e+00       1.909887507561e-10       1.843465011947e-11      -8.743460464291e-15 
   31       1.665214165691e-10       4.687427525874e-15       2.731893668096e-13       0.000000000000e+00       1.800410121522e-10       1.743807694958e-11      -8.663824670402e-15 
   32       1.704615990498e-10       5.246654674868e-15       2.733344711300e-13       0.000000000000e+00       1.699656184979e-10       1.650543756074e-11      -9.459246219377e-15 
   33       1.744659416346e-10       5.850589741818e-15       2.720470564497e-13       0.000000000000e+00       1.606965923404e-10       1.564347146932e-11      -1.060318823683e-14 
   34       1.785267418580e-10       6.500959821370e-15       2.692357554880e-13       0.000000000000e+00       1.521104258198e-10       1.485326140009e-11      -1.153621762563e-14 
   35       1.826495091827e-10       7.199589567463e-15       2.647739773018e-13       0.000000000000e+00       1.441671756920e-10       1.412977442152e-11      -1.209042952076e-14 
   36       1.868392909183e-10       7.948327195329e-15       2.585149547533e-13       0.000000000000e+00       1.368070740607e-10       1.346104472909e-11      -1.220871830713e-14 
   37       1.910964092441e-10       8.748961832113e-15       2.503184329591e-13       0.000000000000e+00       1.299389024047e-10       1.283227001965e-11      -1.186724395741e-14 
   38       1.954213039387e-10       9.603043426053e-15       2.401229044310e-13       0.000000000000e+00       1.235475635691e-10       1.224170739132e-11      -1.119216642034e-14 
   39       1.998101694686e-10       1.051199441021e-14       2.278974178772e-13       0.000000000000e+00       1.176151661501e-10       1.168935488904e-11      -1.038504225483e-14 
   40       2.042528685165e-10       1.147714921900e-14       2.136231669200e-13       0.000000000000e+00       1.120882249177e-10       1.117236281723e-11      -9.695536681499e-15 
   41       2.087376053554e-10       1.249982540294e-14       1.972864690483e-13       0.000000000000e+00       1.068968968613e-10       1.068629549056e-11      -9.355688563425e-15 
   42       2.132682589615e-10       1.358158113136e-14       1.788532106215e-13       0.000000000000e+00       1.020277338435e-10       1.023003609701e-11      -9.349573332696e-15 
   43       2.178516538614e-10       1.472403009171e-14       1.582873032468e-13       0.000000000000e+00       9.746935281495e-11       9.802040496972e-12      -9.573835809635e-15 
   44       2.224925080218e-10       1.592876941709e-14       1.355579009100e-13       0.000000000000e+00       9.319055924887e-11       9.398800256644e-12      -9.898406032857e-15 
   45       2.271934412651e-10       1.719732752826e-14       1.106298419248e-13       0.000000000000e+00       8.915190076747e-11       9.016111523829e-12      -1.019556278424e-14 
   46       2.319556017220e-10       1.853099248258e-14       8.343112267474e-14       0.000000000000e+00       8.534818909184e-11       8.653700737705e-12      -1.044139114043e-14 
   47       2.367777948502e-10       1.993092984123e-14       5.387602073927e-14       0.000000000000e+00       8.177598922424e-11       8.311717107152e-12      -1.064183743422e-14 
   48       2.416560048732e-10       2.139822466469e-14       2.187363443290e-14       0.000000000000e+00       7.842077186461e-11       7.989356499650e-12      -1.080473056256e-14 
   49       2.465831560322e-10       2.293387714220e-14      -1.267248984732e-14       0.000000000000e+00       7.525608224794e-11       7.684787858873e-12      -1.093989383972e-14 
   50       2.515519135577e-10       2.453884405115e-14      -4.985279505116e-14       0.000000000000e+00       7.225172972383e-11       7.395779129573e-12      -1.105823821290e-14 
   51       2.565645367940e-10       2.621418654210e-14      -8.971246118692e-14       0.000000000000e+00       6.940290545798e-11       7.121946039410e-12      -1.116849223876e-14 
   52       2.616252879027e-10       2.796095491358e-14      -1.322806471725e-13       0.000000000000e+00       6.670753168604e-11       6.862986531820e-12      -1.127977784103e-14 
   53       2.667375324649e-10       2.978014412676e-14      -1.775813103187e-13       0.000000000000e+00       6.415753474842e-11       6.617994908980e-12      -1.140261377116e-14 
   54       2.719036437784e-10       3.167269159162e-14      -2.256330173238e-13       0.000000000000e+00       6.173843843319e-11       6.385421167387e-12      -1.154897952556e-14 
   55       2.771251135349e-10       3.363947897130e-14      -2.764524834174e-13       0.000000000000e+00       5.943392553544e-11       6.163548334428e-12      -1.172834160357e-14 
   56       2.824031352942e-10       3.568134319187e-14      -3.300666523532e-13       0.000000000000e+00       5.724178114915e-11       5.952156498127e-12      -1.193442985508e-14 
   57       2.877379983267e-10       3.779906428990e-14      -3.865032862887e-13       0.000000000000e+00       5.516119773944e-11       5.751200931184e-12      -1.215528804989e-14 
   58       2.931288081790e-10       3.999335962128e-14      -4.457874577592e-13       0.000000000000e+00       5.318794548229e-11       5.560310271126e-12      -1.237693236056e-14 
   59       2.985733990117e-10       4.226488180398e-14      -5.079415059257e-13       0.000000000000e+00       5.131415917432e-11       5.378766037745e-12      -1.258325796825e-14 
   60       3.040682459376e-10       4.461421666069e-14      -5.729849928221e-13       0.000000000000e+00       4.952812514252e-11       5.205482150532e-12      -1.275594566863e-14 
   61       3.096097866190e-10       4.704181892877e-14      -6.409348709360e-13       0.000000000000e+00       4.781761965433e-11       5.039323639358e-12      -1.287844776557e-14 
   62       3.151989310245e-10       4.954780718134e-14      -7.118061288862e-13       0.000000000000e+00       4.618128186936e-11       4.880192710365e-12      -1.294920251764e-14 
   63       3.208374129850e-10       5.213211901378e-14      -7.856112136945e-13       0.000000000000e+00       4.461942715394e-11       4.728151221980e-12      -1.297123358521e-14 
   64       3.265264281612e-10       5.479456526255e-14      -8.623597959279e-13       0.000000000000e+00       4.313062242805e-11       4.583093475519e-12      -1.294836780387e-14 
   65       3.322665910967e-10       5.753482597321e-14      -9.420587326521e-13       0.000000000000e+00       4.171158576142e-11       4.444736494962e-12      -1.288527122305e-14 
   66       3.380578922709e-10       6.035244636855e-14      -1.024712030384e-12       0.000000000000e+00       4.035708596978e-11       4.312610306742e-12      -1.278748514458e-14 
   67       3.438996551515e-10       6.324683281670e-14      -1.110320808045e-12       0.000000000000e+00       3.905984221098e-11       4.186048219518e-12      -1.266146216128e-14 
   68       3.497910798425e-10       6.621736835409e-14      -1.198883968446e-12       0.000000000000e+00       3.781251850409e-11       4.064371737548e-12      -1.251379745062e-14 
   69       3.557330979451e-10       6.926379544877e-14      -1.290400453555e-12       0.000000000000e+00       3.661440101730e-11       3.947510537372e-12      -1.234866122646e-14 
   70       3.617268181150e-10       7.238590390829e-14      -1.384867381756e-12       0.000000000000e+00       3.546589962105e-11       3.835491230099e-12      -1.216990838533e-14 
   71       3.677729452782e-10       7.558341723034e-14      -1.482279361157e-12       0.000000000000e+00       3.436652669181e-11       3.728249185581e-12      -1.198185239947e-14 
   72       3.738717526855e-10       7.885599162848e-14      -1.582628470666e-12       0.000000000000e+00       3.331485028678e-11       3.625623790043e-12      -1.178928077372e-14 
   73       3.800230539683e-10       8.220321505795e-14      -1.685904241068e-12       0.000000000000e+00       3.230844731873e-11       3.527353703699e-12      -1.159747050235e-14 
   74       3.862261751937e-10       8.562460624141e-14      -1.792093636094e-12       0.000000000000e+00       3.134385673072e-11       3.433072118375e-12      -1.141220352603e-14 
   75       3.924799269191e-10       8.911961369472e-14      -1.901181033502e-12       0.000000000000e+00       3.041653267087e-11       3.342302015133e-12      -1.123978218861e-14 
   76       3.987830737083e-10       9.268756481459e-14      -2.013148086387e-12       0.000000000000e+00       2.952200071731e-11       3.254577888907e-12      -1.108578956315e-14 
   77       4.051359032940e-10       9.632750457695e-14      -2.127973319792e-12       0.000000000000e+00       2.865967347701e-11       3.169847031791e-12      -1.095107527780e-14 
   78       4.115388941190e-10       1.000383255178e-13      -2.245632425813e-12       0.000000000000e+00       2.782964894041e-11       3.088133149730e-12      -1.083506236703e-14 
   79       4.179922258037e-10       1.038188130959e-13      -2.366098355793e-12       0.000000000000e+00       2.703154736063e-11       3.009414272926e-12      -1.073692734932e-14 
   80       4.244957614025e-10       1.076676436946e-13      -2.489341298941e-12       0.000000000000e+00       2.626448909764e-11       2.933620606770e-12      -1.065558994657e-14 
   81       4.310490296596e-10       1.115833826234e-13      -2.615328660947e-12       0.000000000000e+00       2.552707246266e-11       2.860632382776e-12      -1.058970280350e-14 
   82       4.376512072652e-10       1.155644821201e-13      -2.744025042605e-12       0.000000000000e+00       2.481735156235e-11       2.790277709505e-12      -1.053764120709e-14 
   83       4.443011011114e-10       1.196092793521e-13      -2.875392218427e-12       0.000000000000e+00       2.413281414318e-11       2.722330423502e-12      -1.049749280594e-14 
   84       4.509975446662e-10       1.237160575958e-13      -3.009390345951e-12       0.000000000000e+00       2.347100902417e-11       2.656567911178e-12      -1.046717204816e-14 
   85       4.577407014629e-10       1.278832458061e-13      -3.145981870820e-12       0.000000000000e+00       2.283159643797e-11       2.592960295644e-12      -1.044480781216e-14 
   86       4.645309461742e-10       1.321092486211e-13      -3.285128232894e-12       0.000000000000e+00       2.221459855190e-11       2.531508818655e-12      -1.042840148664e-14 
   87       4.713684590811e-10       1.363923852041e-13      -3.426788692428e-12       0.000000000000e+00       2.161976902806e-11       2.472187533873e-12      -1.041569990181e-14 
   88       4.782532152896e-10       1.407308883064e-13      -3.570920329378e-12       0.000000000000e+00       2.104658178513e-11       2.414942165704e-12      -1.040418714495e-14 
   89       4.851849739461e-10       1.451229033316e-13      -3.717478042706e-12       0.000000000000e+00       2.049421976007e-11       2.359688968152e-12      -1.039107637585e-14 
   90       4.921632674539e-10       1.495664873987e-13      -3.866414549677e-12       0.000000000000e+00       1.996156366985e-11       2.306313583659e-12      -1.037330164239e-14 
   91       4.991873906888e-10       1.540596084057e-13      -4.017680385163e-12       0.000000000000e+00       1.944718077326e-11       2.254669901954e-12      -1.034750969601e-14 
   92       5.062563902152e-10       1.586001440933e-13      -4.171223900948e-12       0.000000000000e+00       1.894931363258e-11       2.204578918899e-12      -1.031005180726e-14 
   93       5.133693202947e-10       1.631859127142e-13      -4.326991316418e-12       0.000000000000e+00       1.846630744314e-11       2.155873967238e-12      -1.025793904007e-14 
   94       5.205260783799e-10       1.678147723528e-13      -4.484926880896e-12       0.000000000000e+00       1.799798995095e-11       2.108546669113e-12      -1.019189019989e-14 
   95       5.277266759248e-10       1.724845348814e-13      -4.644972734545e-12       0.000000000000e+00       1.754447926207e-11       2.062620927078e-12      -1.011372929792e-14 
   96       5.349709757627e-10       1.771929351891e-13      -4.807068859160e-12       0.000000000000e+00       1.710575861879e-11       2.018108010244e-12      -1.002546791087e-14 
   97       5.422586849838e-10       1.819376306796e-13      -4.971153078177e-12       0.000000000000e+00       1.668167118158e-11       1.975006049665e-12      -9.929310221751e-15 
   98       5.495893478138e-10       1.867162007683e-13      -5.137161056678e-12       0.000000000000e+00       1.627191481096e-11       1.933299533722e-12      -9.827658060615e-15 
   99       5.569623384921e-10       1.915261463802e-13      -5.305026301397e-12       0.000000000000e+00       1.587603684937e-11       1.892958803510e-12      -9.723115945311e-15 
  100       5.643768541498e-10       1.963648894464e-13      -5.474680160735e-12       0.000000000000e+00       1.549342890308e-11       1.853939548223e-12      -9.618496122248e-15 
  101       5.718319076880e-10       2.012297724024e-13      -5.646051824758e-12       0.000000000000e+00       1.512332162408e-11       1.816182300537e-12      -9.516823607141e-15 
  102       5.793263206558e-10       2.061180576851e-13      -5.819068325212e-12       0.000000000000e+00       1.476477949197e-11       1.779611932002e-12      -9.421341225772e-15 
  103       5.868587161288e-10       2.110269272302e-13      -5.993654535528e-12       0.000000000000e+00       1.441669559585e-11       1.744137148418e-12      -9.335514654748e-15 
  104       5.944277634489e-10       2.159535404272e-13      -6.169734357098e-12       0.000000000000e+00       1.407804827282e-11       1.709671414404e-12      -9.262235098456e-15 
  105       6.020329654347e-10       2.208952179828e-13      -6.347234460613e-12       0.000000000000e+00       1.374872174530e-11       1.676200033088e-12      -9.201293797866e-15 
  106       6.096739647300e-10       2.258492820734e-13      -6.526081052491e-12       0.000000000000e+00       1.342878712790e-11       1.643721229346e-12      -9.151574173905e-15 
  107       6.173502971361e-10       2.308130002436e-13      -6.706198746625e-12       0.000000000000e+00       1.311824815776e-11       1.612225263912e-12      -9.111819995535e-15 
