# dimensionless total [l(l+1)/2pi] C_l's
# for l=2 to 3000, i.e. number of multipoles equal to 2999
#
# -> if you prefer output in CAMB/HealPix/LensPix units/order, set 'format' to 'camb' in input file
# -> if you don't want to see such a header, set 'headers' to 'no' in input file
# -> for CMB lensing (phi), these are C_l^phi-phi for the lensing potential.
#    Remember the conversion factors:
#    C_l^dd (deflection) = l(l+1) C_l^phi-phi
#    C_l^gg (shear/convergence) = 1/4 (l(l+1))^2 C_l^phi-phi
#
# 1:l     2:TT                     3:EE                     4:TE                     5:BB                     6:phiphi                 7:TPhi                   8:Ephi               
    2       1.190561780930e-09       6.268212890299e-15       2.149812539249e-12       0.000000000000e+00       8.474924714731e-09       2.789053991316e-11      -2.254623363797e-12 
    3       1.155774838186e-09       8.024904001045e-15       2.348175841740e-12       0.000000000000e+00       5.290022824431e-09       7.780819996220e-11      -1.706067641587e-12 
    4       1.105646140037e-09       6.920197441786e-15       2.192303048178e-12       0.000000000000e+00       3.709917803237e-09       8.152900650546e-11      -1.114353408542e-12 
    5       1.053752713803e-09       4.580037796520e-15       1.863064972266e-12       0.000000000000e+00       2.785892359104e-09       7.429617912743e-11      -6.135356851313e-13 
    6       1.003887468674e-09       2.526146444292e-15       1.471097118165e-12       0.000000000000e+00       2.186676790165e-09       6.518003899387e-11      -2.412271683664e-13 
    7       9.572592920768e-10       1.359304560294e-15       1.087811888693e-12       0.000000000000e+00       1.772928970335e-09       5.655098051724e-11      -7.246620725681e-16 
    8       9.140854491405e-10       9.109261332914e-16       7.526211972129e-13       0.000000000000e+00       1.472938239508e-09       4.900980615462e-11       1.241782300939e-13 
    9       8.741567079419e-10       7.737053729920e-16       4.836057570083e-13       0.000000000000e+00       1.246616877394e-09       4.258170567138e-11       1.600255528971e-13 
   10       8.373272991048e-10       6.764264131820e-16       2.847630819554e-13       0.000000000000e+00       1.070803527739e-09       3.714811932361e-11       1.371893859935e-13 
   11       8.033114351917e-10       5.583898310934e-16       1.512860250082e-13       0.000000000000e+00       8.981155633131e-10       3.036039938677e-11       8.425580617456e-14 
   12       7.718876214809e-10       4.623102964486e-16       7.368559584295e-14       0.000000000000e+00       7.871831067398e-10       2.824641671019e-11       2.601647045625e-14 
   13       7.429313442804e-10       4.192671951465e-16       4.070263631398e-14       0.000000000000e+00       6.966798666405e-10       2.209154886652e-11      -2.348571690797e-14 
   14       7.161651411200e-10       4.128740272998e-16       4.098090480234e-14       0.000000000000e+00       6.204483528300e-10       2.122841997038e-11      -5.431648670921e-14 
   15       6.913412643769e-10       4.074095746272e-16       6.405137222555e-14       0.000000000000e+00       5.563359026120e-10       1.909655950778e-11      -6.634406884484e-14 
   16       6.684085383950e-10       3.840626158502e-16       1.010463304502e-13       0.000000000000e+00       5.017558300396e-10       1.694692084426e-11      -6.271964396639e-14 
   17       6.471881899329e-10       3.504530349200e-16       1.448715859438e-13       0.000000000000e+00       4.551266189769e-10       1.289999056284e-11      -5.017841926897e-14 
   18       6.274783403950e-10       3.275233122952e-16       1.900135712808e-13       0.000000000000e+00       4.143297931742e-10       1.093554169056e-11      -3.325233605939e-14 
   19       6.093934521302e-10       3.260514829758e-16       2.330381937421e-13       0.000000000000e+00       3.787892872789e-10       1.079133023682e-11      -1.628473191447e-14 
   20       5.925811171980e-10       3.513029009407e-16       2.710059082471e-13       0.000000000000e+00       3.475160419286e-10       9.951334670444e-12      -4.101911356749e-15 
   21       5.770655533915e-10       3.990702499103e-16       3.025490710268e-13       0.000000000000e+00       3.200244035281e-10       8.506903063813e-12       2.433789084546e-15 
   22       5.626809446220e-10       4.609267335846e-16       3.271428885950e-13       0.000000000000e+00       2.955404807739e-10       7.378931442816e-12       4.219290243223e-15 
   23       5.494213426927e-10       5.341033294946e-16       3.448366540208e-13       0.000000000000e+00       2.737377601699e-10       6.536725490515e-12       2.662336185607e-15 
   24       5.371231672682e-10       6.174090228419e-16       3.562376261188e-13       0.000000000000e+00       2.541641239805e-10       5.643162483999e-12      -3.943208667430e-16 
   25       5.257672178092e-10       7.108735484031e-16       3.622525292307e-13       0.000000000000e+00       2.366068279599e-10       4.665412290533e-12      -3.767041641457e-15 
   26       5.152328715434e-10       8.148385464242e-16       3.642174819963e-13       0.000000000000e+00       2.207492455004e-10       3.699049845866e-12      -6.442848683393e-15 
   27       5.054794753971e-10       9.296447733464e-16       3.636040681344e-13       0.000000000000e+00       2.063747761960e-10       2.967629625734e-12      -8.050170462810e-15 
   28       4.963989809541e-10       1.055634372823e-15       3.620473417717e-13       0.000000000000e+00       1.932078360229e-10       2.682674304906e-12      -8.541212424297e-15 
   29       4.880074954560e-10       1.193367838370e-15       3.605377187612e-13       0.000000000000e+00       1.812062981483e-10       2.679052031643e-12      -8.450967256164e-15 
   30       4.802439921497e-10       1.343476526255e-15       3.599924410227e-13       0.000000000000e+00       1.702919086363e-10       2.610049071950e-12      -8.659734073751e-15 
   31       4.729532610986e-10       1.506552332759e-15       3.612935316001e-13       0.000000000000e+00       1.602909005956e-10       2.149819865560e-12      -9.972200384021e-15 
   32       4.661417069930e-10       1.682975723754e-15       3.645758178515e-13       0.000000000000e+00       1.511379303725e-10       1.429724119881e-12      -1.196153099560e-14 
   33       4.597961931266e-10       1.873014834430e-15       3.696566290784e-13       0.000000000000e+00       1.427291605688e-10       7.707898363998e-13      -1.367486381736e-14 
   34       4.538439535323e-10       2.076934554023e-15       3.761781329429e-13       0.000000000000e+00       1.349101057373e-10       4.756519162061e-13      -1.417525451830e-14 
   35       4.482801533516e-10       2.295242486422e-15       3.835123064979e-13       0.000000000000e+00       1.276511886560e-10       4.760681071139e-13      -1.345006626810e-14 
   36       4.430716494264e-10       2.528527592380e-15       3.907956714973e-13       0.000000000000e+00       1.209232066692e-10       5.596968524478e-13      -1.182259709596e-14 
   37       4.381499684350e-10       2.777385295403e-15       3.971137278460e-13       0.000000000000e+00       1.146679060688e-10       5.162071356068e-13      -9.679697093163e-15 
   38       4.335260903573e-10       3.042379620747e-15       4.021047227986e-13       0.000000000000e+00       1.088722341957e-10       3.336021177607e-13      -7.331247438109e-15 
   39       4.292051076257e-10       3.324069049684e-15       4.055439500723e-13       0.000000000000e+00       1.035124875914e-10       6.550240648402e-14      -5.113558710547e-15 
   40       4.251503724991e-10       3.623016617789e-15       4.071801510752e-13       0.000000000000e+00       9.853063321744e-11      -2.202031354430e-13      -3.432451036865e-15 
   41       4.213046166515e-10       3.939756114512e-15       4.068134703471e-13       0.000000000000e+00       9.385382202475e-11      -4.568053057901e-13      -2.652973703615e-15 
   42       4.176712053711e-10       4.274677564540e-15       4.045634080621e-13       0.000000000000e+00       8.946770610588e-11      -6.334378453902e-13      -2.715239710693e-15 
   43       4.142525939751e-10       4.628104385494e-15       4.006855987506e-13       0.000000000000e+00       8.536199194541e-11      -7.566185159182e-13      -3.400637530494e-15 
   44       4.110252506941e-10       5.000321596968e-15       3.955038068981e-13       0.000000000000e+00       8.150862091616e-11      -8.355709248576e-13      -4.431955133672e-15 
   45       4.079538846675e-10       5.391598856817e-15       3.893541807657e-13       0.000000000000e+00       7.787227515357e-11      -8.813116663745e-13      -5.522888693881e-15 
   46       4.050445725654e-10       5.802273376015e-15       3.823887562849e-13       0.000000000000e+00       7.444899309851e-11      -9.031518840766e-13      -6.552842143781e-15 
   47       4.023036382094e-10       6.232687754455e-15       3.747199822035e-13       0.000000000000e+00       7.123667847270e-11      -9.114633989572e-13      -7.438161079505e-15 
   48       3.997212307478e-10       6.683165836458e-15       3.664758765335e-13       0.000000000000e+00       6.822345739478e-11      -9.188031331052e-13      -8.082919674857e-15 
   49       3.972699963915e-10       7.154011800540e-15       3.578005687957e-13       0.000000000000e+00       6.538694269329e-11      -9.400342697181e-13      -8.378323323708e-15 
   50       3.949170341419e-10       7.645499192338e-15       3.488155950422e-13       0.000000000000e+00       6.270109482820e-11      -9.879107357121e-13      -8.241202570367e-15 
   51       3.926666703837e-10       8.157836625665e-15       3.394901393265e-13       0.000000000000e+00       6.016070694425e-11      -1.058136592759e-12      -7.743198828061e-15 
   52       3.905269989858e-10       8.691191198001e-15       3.297365080498e-13       0.000000000000e+00       5.776229432850e-11      -1.140460619347e-12      -7.015612094166e-15 
   53       3.884969256352e-10       9.245696382955e-15       3.194450250666e-13       0.000000000000e+00       5.549670945660e-11      -1.222768397830e-12      -6.214587218183e-15 
   54       3.865654647028e-10       9.821450646767e-15       3.084827270013e-13       0.000000000000e+00       5.334876379327e-11      -1.290989983749e-12      -5.522356134147e-15 
   55       3.847182911419e-10       1.041856857328e-14       2.967123120680e-13       0.000000000000e+00       5.130184759247e-11      -1.332751831840e-12      -5.103775890927e-15 
   56       3.829609130142e-10       1.103735228101e-14       2.840574878269e-13       0.000000000000e+00       4.935399966061e-11      -1.349606473779e-12      -4.960453419469e-15 
   57       3.813000239203e-10       1.167816016649e-14       2.704515719575e-13       0.000000000000e+00       4.750516722134e-11      -1.347679230486e-12      -5.042558093712e-15 
   58       3.797363409989e-10       1.234135877452e-14       2.558181566949e-13       0.000000000000e+00       4.575237819810e-11      -1.334242520435e-12      -5.289862314363e-15 
   59       3.782641844550e-10       1.302732346055e-14       2.400705932442e-13       0.000000000000e+00       4.408955774187e-11      -1.317769409096e-12      -5.631242019155e-15 
   60       3.768710570881e-10       1.373643905288e-14       2.231114761933e-13       0.000000000000e+00       4.250734475885e-11      -1.307987158376e-12      -5.984177193097e-15 
   61       3.755431847488e-10       1.446898812027e-14       2.048597515935e-13       0.000000000000e+00       4.099576987412e-11      -1.313444979575e-12      -6.272667954156e-15 
   62       3.742845421704e-10       1.522478496931e-14       1.853403179221e-13       0.000000000000e+00       3.955340680747e-11      -1.333458181168e-12      -6.486812104670e-15 
   63       3.731013709902e-10       1.600346029516e-14       1.646137136293e-13       0.000000000000e+00       3.817995889556e-11      -1.364442593776e-12      -6.635774906850e-15 
   64       3.719963689095e-10       1.680456348059e-14       1.427506219273e-13       0.000000000000e+00       3.687348807057e-11      -1.402215984227e-12      -6.730636692995e-15 
   65       3.709684583579e-10       1.762755969201e-14       1.198322316828e-13       0.000000000000e+00       3.563032217917e-11      -1.441972732558e-12      -6.784477688024e-15 
   66       3.700125551570e-10       1.847182697565e-14       9.595059830803e-14       0.000000000000e+00       3.444496230139e-11      -1.478258509011e-12      -6.812462832012e-15 
   67       3.691193371850e-10       1.933665335354e-14       7.120900465263e-14       0.000000000000e+00       3.330999006963e-11      -1.504944951035e-12      -6.831926602725e-15 
   68       3.682791649456e-10       2.022137612238e-14       4.569737666251e-14       0.000000000000e+00       3.221805644340e-11      -1.516784821958e-12      -6.857730739438e-15 
   69       3.674952828669e-10       2.112583901720e-14       1.941193910573e-14       0.000000000000e+00       3.116852315020e-11      -1.514500011034e-12      -6.887055510793e-15 
   70       3.667728896420e-10       2.205002288999e-14      -7.680146496684e-15       0.000000000000e+00       3.016200666235e-11      -1.500683741688e-12      -6.911664977123e-15 
   71       3.661151000949e-10       2.299391242296e-14      -3.561754919895e-14       0.000000000000e+00       2.919837707096e-11      -1.478326136810e-12      -6.922325994299e-15 
   72       3.655228200313e-10       2.395749686156e-14      -6.444504572434e-14       0.000000000000e+00       2.827671863915e-11      -1.450829317279e-12      -6.908772138598e-15 
   73       3.649946210897e-10       2.494077074746e-14      -9.421379755896e-14       0.000000000000e+00       2.739529035504e-11      -1.422022500488e-12      -6.859667631571e-15 
   74       3.645266155923e-10       2.594373465153e-14      -1.249816280456e-13       0.000000000000e+00       2.655148648493e-11      -1.396177098868e-12      -6.762571264918e-15 
   75       3.641123313958e-10       2.696639590682e-14      -1.568132994774e-13       0.000000000000e+00       2.574179712635e-11      -1.378021818419e-12      -6.603900325351e-15 
   76       3.637452987443e-10       2.800867741702e-14      -1.897638737536e-13       0.000000000000e+00       2.496269641927e-11      -1.371585792060e-12      -6.373150527942e-15 
   77       3.634276320726e-10       2.907012326330e-14      -2.238246788025e-13       0.000000000000e+00       2.421358136997e-11      -1.376451053120e-12      -6.076523968177e-15 
   78       3.631627930365e-10       3.015014049572e-14      -2.589679465202e-13       0.000000000000e+00       2.349429975867e-11      -1.390840938306e-12      -5.725732297351e-15 
   79       3.629529489295e-10       3.124808516189e-14      -2.951627864228e-13       0.000000000000e+00       2.280424992987e-11      -1.412722638530e-12      -5.334011548662e-15 
   80       3.627989031459e-10       3.236326115497e-14      -3.323751158547e-13       0.000000000000e+00       2.214236036785e-11      -1.439798265338e-12      -4.916173334987e-15 
   81       3.627000256433e-10       3.349491906164e-14      -3.705675901976e-13       0.000000000000e+00       2.150706927214e-11      -1.469495917347e-12      -4.488656046654e-15 
   82       3.626541834054e-10       3.464225501015e-14      -4.096995330786e-13       0.000000000000e+00       2.089630413299e-11      -1.498960746669e-12      -4.069576049207e-15 
   83       3.626576709048e-10       3.580440951828e-14      -4.497268665790e-13       0.000000000000e+00       2.030746130686e-11      -1.525046025347e-12      -3.678778881183e-15 
   84       3.627068207588e-10       3.698053212855e-14      -4.906084242779e-13       0.000000000000e+00       1.973803920924e-11      -1.545004938305e-12      -3.333674456808e-15 
   85       3.628032948078e-10       3.816999014871e-14      -5.323262457439e-13       0.000000000000e+00       1.918770324061e-11      -1.558717301064e-12      -3.035837231860e-15 
   86       3.629495467710e-10       3.937219256477e-14      -5.748685341238e-13       0.000000000000e+00       1.865652732575e-11      -1.566817321727e-12      -2.782268169302e-15 
   87       3.631471793514e-10       4.058652728491e-14      -6.182236093713e-13       0.000000000000e+00       1.814436143240e-11      -1.570028496887e-12      -2.569393856243e-15 
   88       3.633969029373e-10       4.181236109311e-14      -6.623799457302e-13       0.000000000000e+00       1.765082213191e-11      -1.569166454975e-12      -2.393046844652e-15 
   89       3.636984943034e-10       4.304903960286e-14      -7.073262092175e-13       0.000000000000e+00       1.717528315988e-11      -1.565141799604e-12      -2.248445992067e-15 
   90       3.640507553121e-10       4.429588721077e-14      -7.530512951060e-13       0.000000000000e+00       1.671686597680e-11      -1.558962952921e-12      -2.130176802308e-15 
   91       3.644514716149e-10       4.555220705031e-14      -7.995443654080e-13       0.000000000000e+00       1.627443032870e-11      -1.551738998950e-12      -2.032171766189e-15 
   92       3.648973713534e-10       4.681728094540e-14      -8.467948863582e-13       0.000000000000e+00       1.584656480781e-11      -1.544682526940e-12      -1.947690702223e-15 
   93       3.653854068906e-10       4.809036579399e-14      -8.947903466667e-13       0.000000000000e+00       1.543193181983e-11      -1.538855573873e-12      -1.870595320559e-15 
   94       3.659169102208e-10       4.937068219704e-14      -9.435089383052e-13       0.000000000000e+00       1.503038233793e-11      -1.534357567297e-12      -1.799434895395e-15 
   95       3.664939890841e-10       5.065742402566e-14      -9.929258390914e-13       0.000000000000e+00       1.464199213554e-11      -1.531019937807e-12      -1.733941589161e-15 
   96       3.671182367956e-10       5.194976174489e-14      -1.043015439405e-12       0.000000000000e+00       1.426671780525e-11      -1.528651463619e-12      -1.673789112839e-15 
   97       3.677907091075e-10       5.324684231828e-14      -1.093751347838e-12       0.000000000000e+00       1.390439218437e-11      -1.527037587484e-12      -1.618590832256e-15 
   98       3.685119010713e-10       5.454778911259e-14      -1.145106396837e-12       0.000000000000e+00       1.355471978041e-11      -1.525939733595e-12      -1.567897874393e-15 
   99       3.692817239005e-10       5.585170180245e-14      -1.197052648355e-12       0.000000000000e+00       1.321727219663e-11      -1.525094624502e-12      -1.521197233683e-15 
  100       3.700994818323e-10       5.715765627499e-14      -1.249561399497e-12       0.000000000000e+00       1.289148355759e-11      -1.524213598024e-12      -1.477909878307e-15 
  101       3.709638489899e-10       5.846470453453e-14      -1.302603188170e-12       0.000000000000e+00       1.257664593461e-11      -1.522981924156e-12      -1.437388856504e-15 
  102       3.718728462454e-10       5.977187460724e-14      -1.356147798724e-12       0.000000000000e+00       1.227190477136e-11      -1.521058121986e-12      -1.398917402862e-15 
  103       3.728238180814e-10       6.107817044577e-14      -1.410164267606e-12       0.000000000000e+00       1.197625430936e-11      -1.518073276599e-12      -1.361707044626e-15 
  104       3.738143544476e-10       6.238259686361e-14      -1.464621226278e-12       0.000000000000e+00       1.168876763096e-11      -1.513704086884e-12      -1.325147966665e-15 
  105       3.748452479892e-10       6.368423837955e-14      -1.519487970568e-12       0.000000000000e+00       1.140933203237e-11      -1.507904718306e-12      -1.289602702807e-15 
  106       3.759178950212e-10       6.498219089578e-14      -1.574733546974e-12       0.000000000000e+00       1.113800492314e-11      -1.500705142392e-12      -1.255716629360e-15 
  107       3.770333736079e-10       6.627553779688e-14      -1.630326437531e-12       0.000000000000e+00       1.087478610726e-11      -1.492140328277e-12      -1.224176148471e-15 
