# dimensionless total [l(l+1)/2pi] C_l's
# for l=2 to 3000, i.e. number of multipoles equal to 2999
#
# -> if you prefer output in CAMB/HealPix/LensPix units/order, set 'format' to 'camb' in input file
# -> if you don't want to see such a header, set 'headers' to 'no' in input file
# -> for CMB lensing (phi), these are C_l^phi-phi for the lensing potential.
#    Remember the conversion factors:
#    C_l^dd (deflection) = l(l+1) C_l^phi-phi
#    C_l^gg (shear/convergence) = 1/4 (l(l+1))^2 C_l^phi-phi
#
# 1:l     2:TT                     3:EE                     4:TE                     5:BB                     6:phiphi                 7:TPhi                   8:Ephi               
    2       1.203190616105e-09       6.359377692930e-15       2.202792306164e-12       0.000000000000e+00       9.020010197677e-09       3.381692225261e-11      -2.267556190318e-12 
    3       1.166118000531e-09       8.158757483534e-15       2.415533722605e-12       0.000000000000e+00       5.651218579126e-09       8.554275101578e-11      -1.720575678315e-12 
    4       1.113825155858e-09       7.053913991214e-15       2.262151224517e-12       0.000000000000e+00       3.998628663446e-09       8.914255707125e-11      -1.125769214907e-12 
    5       1.060046605039e-09       4.684505065871e-15       1.924353708265e-12       0.000000000000e+00       3.026951481141e-09       8.141002495779e-11      -6.206732368738e-13 
    6       1.008621340434e-09       2.600488676907e-15       1.516823659551e-12       0.000000000000e+00       2.393793724357e-09       7.178740959016e-11      -2.438531597747e-13 
    7       9.607340960276e-10       1.421394303853e-15       1.115519375460e-12       0.000000000000e+00       1.952556311156e-09       6.268728111908e-11       6.816793284309e-16 
    8       9.165514547559e-10       9.776040707256e-16       7.635787580824e-13       0.000000000000e+00       1.629614399984e-09       5.469327032450e-11       1.285151163445e-13 
    9       8.758458089286e-10       8.498319256447e-16       4.816239837549e-13       0.000000000000e+00       1.384653599851e-09       4.782767001413e-11       1.658145449434e-13 
   10       8.384401042404e-10       7.562193452099e-16       2.748129872828e-13       0.000000000000e+00       1.193624537845e-09       4.199606489374e-11       1.428425037748e-13 
   11       8.040414055799e-10       6.340956927993e-16       1.384297306393e-13       0.000000000000e+00       9.990415004543e-10       3.447729352348e-11       8.848760146873e-14 
   12       7.724030116548e-10       5.316933845567e-16       6.229018610671e-14       0.000000000000e+00       8.787097847453e-10       3.213960720050e-11       2.757484556496e-14 
   13       7.433621459933e-10       4.867456412456e-16       3.387129760905e-14       0.000000000000e+00       7.801948880700e-10       2.582265565116e-11      -2.540524491313e-14 
   14       7.165894419299e-10       4.850131763643e-16       4.042155733115e-14       0.000000000000e+00       6.971077687663e-10       2.464786219171e-11      -5.981078754347e-14 
   15       6.918484514105e-10       4.873033656305e-16       7.018908589432e-14       0.000000000000e+00       6.270154314239e-10       2.235862222058e-11      -7.506949014571e-14 
   16       6.690682310526e-10       4.691417444709e-16       1.132228006902e-13       0.000000000000e+00       5.671783428048e-10       2.020932178267e-11      -7.384817367716e-14 
   17       6.480526869277e-10       4.348598723479e-16       1.617643906869e-13       0.000000000000e+00       5.159511742186e-10       1.580108463352e-11      -6.298083211417e-14 
   18       6.285828604564e-10       4.065018633486e-16       2.099774981457e-13       0.000000000000e+00       4.710411051613e-10       1.358926787855e-11      -4.658570579338e-14 
   19       6.107692682269e-10       3.989524298688e-16       2.543813783001e-13       0.000000000000e+00       4.318378464850e-10       1.336419660938e-11      -2.907477337734e-14 
   20       5.942580063027e-10       4.227098653183e-16       2.922176256332e-13       0.000000000000e+00       3.972598947907e-10       1.241027247744e-11      -1.564739709290e-14 
   21       5.790631507022e-10       4.756179485683e-16       3.224943630569e-13       0.000000000000e+00       3.667910344956e-10       1.081329632940e-11      -7.328588006297e-15 
   22       5.650057651605e-10       5.497579646556e-16       3.452094405341e-13       0.000000000000e+00       3.395997336794e-10       9.550251332841e-12      -3.364277208089e-15 
   23       5.520764867866e-10       6.408309888404e-16       3.607251256307e-13       0.000000000000e+00       3.153372580537e-10       8.592931540597e-12      -2.564121515339e-15 
   24       5.401109976795e-10       7.453260565664e-16       3.699513213725e-13       0.000000000000e+00       2.935108896016e-10       7.590969075457e-12      -3.347999985947e-15 
   25       5.290845901082e-10       8.628642824433e-16       3.741458113505e-13       0.000000000000e+00       2.738899384133e-10       6.523073956108e-12      -4.713922738778e-15 
   26       5.188708904191e-10       9.939125329927e-16       3.749694100410e-13       0.000000000000e+00       2.561281409747e-10       5.497435654418e-12      -5.807066513576e-15 
   27       5.094312123492e-10       1.138762084398e-15       3.738349162558e-13       0.000000000000e+00       2.399971441537e-10       4.711360823308e-12      -6.370104962258e-15 
   28       5.006620877536e-10       1.297672435166e-15       3.721814658954e-13       0.000000000000e+00       2.252033785231e-10       4.341647522151e-12      -6.429946607997e-15 
   29       4.925798859894e-10       1.471396520188e-15       3.709173387511e-13       0.000000000000e+00       2.117007408131e-10       4.232298898460e-12      -6.484833676789e-15 
   30       4.851228327640e-10       1.660869571897e-15       3.708871494067e-13       0.000000000000e+00       1.993969290629e-10       4.063602837096e-12      -7.310046792636e-15 
   31       4.781356967525e-10       1.866936229557e-15       3.728644285206e-13       0.000000000000e+00       1.880930081433e-10       3.535081877538e-12      -9.566786570242e-15 
   32       4.716268072048e-10       2.089842130105e-15       3.768359610173e-13       0.000000000000e+00       1.777213931637e-10       2.770603812219e-12      -1.269323353270e-14 
   33       4.655862662519e-10       2.329534193109e-15       3.824282942961e-13       0.000000000000e+00       1.681753169959e-10       2.069919264508e-12      -1.557487432782e-14 
   34       4.599446650785e-10       2.585962627396e-15       3.890916427375e-13       0.000000000000e+00       1.592905542063e-10       1.715103899945e-12      -1.709880983512e-14 
   35       4.546972877927e-10       2.859721942863e-15       3.961572093327e-13       0.000000000000e+00       1.510342064154e-10       1.642106718968e-12      -1.715794153991e-14 
   36       4.498100765507e-10       3.151634015717e-15       4.027729119150e-13       0.000000000000e+00       1.433701510361e-10       1.651960472506e-12      -1.599860872120e-14 
   37       4.452138107731e-10       3.462597759773e-15       4.080484044601e-13       0.000000000000e+00       1.362294352890e-10       1.547249362700e-12      -1.394672967035e-14 
   38       4.409200166706e-10       3.793637220621e-15       4.116574646176e-13       0.000000000000e+00       1.295983866015e-10       1.316356614326e-12      -1.134988875499e-14 
   39       4.369348846641e-10       4.145878225985e-15       4.134250569496e-13       0.000000000000e+00       1.234526185283e-10       1.008850890103e-12      -8.627137795527e-15 
   40       4.332231369097e-10       4.520542703242e-15       4.131654730823e-13       0.000000000000e+00       1.177291447685e-10       6.872501808937e-13      -6.292161048324e-15 
   41       4.297287018741e-10       4.918782051774e-15       4.107545263723e-13       0.000000000000e+00       1.123480877600e-10       4.128515257393e-13      -4.826241622687e-15 
   42       4.264544190211e-10       5.341098670061e-15       4.063753928368e-13       0.000000000000e+00       1.072943740643e-10       1.956258637406e-13      -4.233145782541e-15 
   43       4.234015684990e-10       5.787745465194e-15       4.003521054880e-13       0.000000000000e+00       1.025569829855e-10       2.944510200553e-14      -4.349336352727e-15 
   44       4.205451975134e-10       6.258875613654e-15       3.930883501917e-13       0.000000000000e+00       9.810457201724e-11      -9.448222333022e-14      -4.961296679316e-15 
   45       4.178486863957e-10       6.754629410065e-15       3.849869997101e-13       0.000000000000e+00       9.389735917070e-11      -1.862469504434e-13      -5.837302692594e-15 
   46       4.153180452802e-10       7.275440608807e-15       3.761692482171e-13       0.000000000000e+00       8.993085561968e-11      -2.522289776836e-13      -6.841648851857e-15 
   47       4.129599479809e-10       7.821810959097e-15       3.666792913434e-13       0.000000000000e+00       8.620242860518e-11      -2.989215668878e-13      -7.849097601355e-15 
   48       4.107649926870e-10       8.394224106326e-15       3.565617632078e-13       0.000000000000e+00       8.269808759346e-11      -3.344404295266e-13      -8.711682644546e-15 
   49       4.087063790465e-10       8.993144661673e-15       3.458614138295e-13       0.000000000000e+00       7.939162908905e-11      -3.686179579127e-13      -9.257506218428e-15 
   50       4.067516609882e-10       9.619024154902e-15       3.346040619001e-13       0.000000000000e+00       7.625288343772e-11      -4.107152314030e-13      -9.341643633728e-15 
   51       4.049048352556e-10       1.027232295613e-14       3.227341063915e-13       0.000000000000e+00       7.327707824597e-11      -4.616072605878e-13      -9.017936671904e-15 
   52       4.031733905880e-10       1.095349269624e-14       3.101594955674e-13       0.000000000000e+00       7.046196708673e-11      -5.196394003960e-13      -8.411752578743e-15 
   53       4.015555396884e-10       1.166296931170e-14       2.967677939643e-13       0.000000000000e+00       6.779900739417e-11      -5.828067288386e-13      -7.673172155398e-15 
   54       4.000395116364e-10       1.240117243807e-14       2.824249786433e-13       0.000000000000e+00       6.527293360563e-11      -6.487361735113e-13      -6.978239139338e-15 
   55       3.986102503852e-10       1.316850509817e-14       2.669964798494e-13       0.000000000000e+00       6.286653622188e-11      -7.150189719350e-13      -6.489309123127e-15 
   56       3.972730799252e-10       1.396535406526e-14       2.504191815797e-13       0.000000000000e+00       6.057736715282e-11      -7.803457148697e-13      -6.221699232559e-15 
   57       3.960346786606e-10       1.479208852775e-14       2.326451990442e-13       0.000000000000e+00       5.840443666290e-11      -8.436219652924e-13      -6.146099754668e-15 
   58       3.948957784835e-10       1.564905922051e-14       2.136208716200e-13       0.000000000000e+00       5.634315189365e-11      -9.036384967880e-13      -6.226235553518e-15 
   59       3.938507457355e-10       1.653659782980e-14       1.932864257696e-13       0.000000000000e+00       5.438509283363e-11      -9.590670694220e-13      -6.418521926665e-15 
   60       3.928871621692e-10       1.745501639835e-14       1.715756379587e-13       0.000000000000e+00       5.251778828839e-11      -1.008456205614e-12      -6.671720461613e-15 
   61       3.919913032098e-10       1.840453741899e-14       1.484350344626e-13       0.000000000000e+00       5.072826909711e-11      -1.050581439756e-12      -6.936915632782e-15 
   62       3.911669576494e-10       1.938506712580e-14       1.238872893790e-13       0.000000000000e+00       4.901516659590e-11      -1.085597492053e-12      -7.200839958980e-15 
   63       3.904201078679e-10       2.039637002831e-14       9.798152358406e-14       0.000000000000e+00       4.737894459790e-11      -1.114138393643e-12      -7.459452388595e-15 
   64       3.897531779650e-10       2.143813099360e-14       7.077530076556e-14       0.000000000000e+00       4.581825966162e-11      -1.136992717728e-12      -7.708261281232e-15 
   65       3.891648018379e-10       2.250995245211e-14       4.233491023148e-14       0.000000000000e+00       4.432985691000e-11      -1.155110602631e-12      -7.942307733463e-15 
   66       3.886495912601e-10       2.361135160345e-14       1.273564971887e-14       0.000000000000e+00       4.290846584963e-11      -1.169610774855e-12      -8.156148904578e-15 
   67       3.881979039594e-10       2.474175762220e-14      -1.793789179746e-14       0.000000000000e+00       4.154669618979e-11      -1.181787572134e-12      -8.343841342329e-15 
   68       3.877998201719e-10       2.590063900276e-14      -4.961353516509e-14       0.000000000000e+00       4.023708528482e-11      -1.192913791847e-12      -8.499253044102e-15 
   69       3.874585263727e-10       2.708792180317e-14      -8.230235252698e-14       0.000000000000e+00       3.897895508709e-11      -1.203587149022e-12      -8.617110338427e-15 
   70       3.871792392676e-10       2.830365151826e-14      -1.160417380987e-13       0.000000000000e+00       3.777276382198e-11      -1.214263401597e-12      -8.692134149518e-15 
   71       3.869651152060e-10       2.954787096363e-14      -1.508749687943e-13       0.000000000000e+00       3.661802902716e-11      -1.225450577087e-12      -8.718721912155e-15 
   72       3.868171258927e-10       3.082062080985e-14      -1.868514836653e-13       0.000000000000e+00       3.551327840048e-11      -1.237710773785e-12      -8.690939304990e-15 
   73       3.867339341001e-10       3.212194011661e-14      -2.240271633385e-13       0.000000000000e+00       3.445600064784e-11      -1.251661961957e-12      -8.602511983848e-15 
   74       3.867117693802e-10       3.345186686687e-14      -2.624646094553e-13       0.000000000000e+00       3.344259633100e-11      -1.267979785045e-12      -8.446817315035e-15 
   75       3.867443037771e-10       3.481043850111e-14      -3.022334241100e-13       0.000000000000e+00       3.246832871547e-11      -1.287399360861e-12      -8.216876108639e-15 
   76       3.868252132706e-10       3.619760311982e-14      -3.433927043669e-13       0.000000000000e+00       3.152852522411e-11      -1.310473926663e-12      -7.908338353010e-15 
   77       3.869566761027e-10       3.761293321621e-14      -3.859342227433e-13       0.000000000000e+00       3.062254338760e-11      -1.336795981206e-12      -7.529087267623e-15 
   78       3.871422055562e-10       3.905586046927e-14      -4.298293449581e-13       0.000000000000e+00       2.975044216473e-11      -1.365636726737e-12      -7.091379713412e-15 
   79       3.873840336080e-10       4.052575916764e-14      -4.750458117838e-13       0.000000000000e+00       2.891177236822e-11      -1.396173491819e-12      -6.609059828607e-15 
   80       3.876830417149e-10       4.202194491198e-14      -5.215476537909e-13       0.000000000000e+00       2.810555315737e-11      -1.427486546420e-12      -6.097612156459e-15 
   81       3.880386915978e-10       4.354367331737e-14      -5.692951060920e-13       0.000000000000e+00       2.733024853052e-11      -1.458555916996e-12      -5.574214772958e-15 
   82       3.884489560281e-10       4.509013871559e-14      -6.182445230863e-13       0.000000000000e+00       2.658374381765e-11      -1.488258201575e-12      -5.057792414562e-15 
   83       3.889102496117e-10       4.666047285753e-14      -6.683482932040e-13       0.000000000000e+00       2.586332217286e-11      -1.515363384847e-12      -4.569069605916e-15 
   84       3.894189899109e-10       4.825380716039e-14      -7.195622457423e-13       0.000000000000e+00       2.516634316354e-11      -1.538786370702e-12      -4.126568740802e-15 
   85       3.899767297768e-10       4.986947414827e-14      -7.718694689513e-13       0.000000000000e+00       2.449245928516e-11      -1.558396467299e-12      -3.733725679672e-15 
   86       3.905857529025e-10       5.150683718225e-14      -8.252603025289e-13       0.000000000000e+00       2.384172550634e-11      -1.574336882036e-12      -3.389725667016e-15 
   87       3.912474779383e-10       5.316522965844e-14      -8.797252366613e-13       0.000000000000e+00       2.321391830801e-11      -1.586783015494e-12      -3.093353663958e-15 
   88       3.919624166774e-10       5.484395477835e-14      -9.352549526846e-13       0.000000000000e+00       2.260852397580e-11      -1.595943557491e-12      -2.842979323924e-15 
   89       3.927301322416e-10       5.654228531918e-14      -9.918403637471e-13       0.000000000000e+00       2.202472689262e-11      -1.602061583132e-12      -2.636541968326e-15 
   90       3.935491972672e-10       5.825946340421e-14      -1.049472655471e-12       0.000000000000e+00       2.146139783106e-11      -1.605415648862e-12      -2.471535562233e-15 
   91       3.944171520906e-10       5.999470027308e-14      -1.108143326613e-12       0.000000000000e+00       2.091708224595e-11      -1.606320888513e-12      -2.344993690050e-15 
   92       3.953304629343e-10       6.174717605217e-14      -1.167844229730e-12       0.000000000000e+00       2.038998856676e-11      -1.605130109358e-12      -2.253474531197e-15 
   93       3.962858406914e-10       6.351603978900e-14      -1.228564915079e-12       0.000000000000e+00       1.987842943576e-11      -1.602196856498e-12      -2.193271390150e-15 
   94       3.972845149877e-10       6.530041006011e-14      -1.290284117062e-12       0.000000000000e+00       1.938224676328e-11      -1.597755870838e-12      -2.161113140293e-15 
   95       3.983285286199e-10       6.709937403041e-14      -1.352977056562e-12       0.000000000000e+00       1.890158035212e-11      -1.592026594812e-12      -2.153541838588e-15 
   96       3.994194114054e-10       6.891198697424e-14      -1.416618027212e-12       0.000000000000e+00       1.843642863257e-11      -1.585250168378e-12      -2.166684789480e-15 
   97       4.005581570452e-10       7.073727204937e-14      -1.481180399032e-12       0.000000000000e+00       1.798664317239e-11      -1.577690003012e-12      -2.196242616722e-15 
   98       4.017451999862e-10       7.257422007091e-14      -1.546636622077e-12       0.000000000000e+00       1.755192318686e-11      -1.569632355706e-12      -2.237477335204e-15 
   99       4.029803922839e-10       7.442178928532e-14      -1.612958230079e-12       0.000000000000e+00       1.713181004871e-11      -1.561386902962e-12      -2.285200422770e-15 
  100       4.042629804645e-10       7.627890514436e-14      -1.680115844095e-12       0.000000000000e+00       1.672568179816e-11      -1.553287314794e-12      -2.333760892051e-15 
  101       4.055915823877e-10       7.814446007905e-14      -1.748079176143e-12       0.000000000000e+00       1.633274765286e-11      -1.545691828719e-12      -2.377033362280e-15 
  102       4.069641641095e-10       8.001731327362e-14      -1.816817032853e-12       0.000000000000e+00       1.595204251796e-11      -1.538983823757e-12      -2.408406131124e-15 
  103       4.083780167438e-10       8.189629043949e-14      -1.886297319110e-12       0.000000000000e+00       1.558242149603e-11      -1.533572394426e-12      -2.420769246506e-15 
  104       4.098306686575e-10       8.378021027494e-14      -1.956487419085e-12       0.000000000000e+00       1.522282524355e-11      -1.529770972381e-12      -2.408251341389e-15 
  105       4.113228122244e-10       8.566796840160e-14      -2.027355390115e-12       0.000000000000e+00       1.487312868898e-11      -1.527413281428e-12      -2.371723034958e-15 
  106       4.128557311383e-10       8.755846439793e-14      -2.098868937645e-12       0.000000000000e+00       1.453339726287e-11      -1.526186332216e-12      -2.314018184070e-15 
  107       4.144303876827e-10       8.945057619247e-14      -2.170995059936e-12       0.000000000000e+00       1.420362380614e-11      -1.525746984983e-12      -2.238258708550e-15 
