# dimensionless total lensed [l(l+1)/2pi] C_l's
# for l=2 to 2500, i.e. number of multipoles equal to 2499
#
# -> if you prefer output in CAMB/HealPix/LensPix units/order, set 'format' to 'camb' in input file
# -> if you don't want to see such a header, set 'headers' to 'no' in input file
# -> for CMB lensing (phi), these are C_l^phi-phi for the lensing potential.
#    Remember the conversion factors:
#    C_l^dd (deflection) = l(l+1) C_l^phi-phi
#    C_l^gg (shear/convergence) = 1/4 (l(l+1))^2 C_l^phi-phi
#
# 1:l     2:TT                     3:EE                     4:TE                     5:BB                     6:phiphi                 7:TPhi                   8:Ephi               
    2       1.203190644051e-09       6.359711062110e-15       2.202792297663e-12       3.333690471920e-19       9.020010197677e-09       3.381692225261e-11      -2.267556190318e-12 
    3       1.166118070007e-09       8.159424314014e-15       2.415533684807e-12       6.668291772127e-19       5.651218579126e-09       8.554275101578e-11      -1.720575678315e-12 
    4       1.113825301338e-09       7.055025581207e-15       2.262151116243e-12       1.111583586180e-18       3.998628663446e-09       8.914255707125e-11      -1.125769214907e-12 
    5       1.060046877729e-09       4.686172839351e-15       1.924353462557e-12       1.667751523539e-18       3.026951481141e-09       8.141002495779e-11      -6.206732368738e-13 
    6       1.008621811308e-09       2.602824216957e-15       1.516823178635e-12       2.335480113850e-18       2.393793724357e-09       7.178740959016e-11      -2.438531597747e-13 
    7       9.607348581630e-10       1.424509386492e-15       1.115518526570e-12       3.114943019333e-18       1.952556311156e-09       6.268728111908e-11       6.816793284309e-16 
    8       9.165526248858e-10       9.816106986035e-16       7.635773702255e-13       4.006338796521e-18       1.629614399984e-09       5.469327032450e-11       1.285151163445e-13 
    9       8.758475281596e-10       8.548423606988e-16       4.816218454906e-13       5.009888935124e-18       1.384653599851e-09       4.782767001413e-11       1.658145449434e-13 
   10       8.384425379140e-10       7.623461391034e-16       2.748098455286e-13       6.125835571975e-18       1.193624537845e-09       4.199606489374e-11       1.428425037748e-13 
   11       8.040447422881e-10       6.414517137397e-16       1.384252904870e-13       7.354438880005e-18       9.990415004543e-10       3.447729352348e-11       8.848760146873e-14 
   12       7.724074614490e-10       5.403918389299e-16       6.228411159352e-14       8.695974141431e-18       8.787097847453e-10       3.213960720050e-11       2.757484556496e-14 
   13       7.433679378566e-10       4.969000884300e-16       3.386321335219e-14       1.015072852533e-17       7.801948880700e-10       2.582265565116e-11      -2.540524491313e-14 
   14       7.165968206076e-10       4.967375351173e-16       4.041105090566e-14       1.171899760215e-17       6.971077687663e-10       2.464786219171e-11      -5.981078754347e-14 
   15       6.918576737182e-10       5.007119105730e-16       7.017571080807e-14       1.340108164094e-17       6.270154314239e-10       2.235862222058e-11      -7.506949014571e-14 
   16       6.690795617964e-10       4.843490914430e-16       1.132060797921e-13       1.519728174815e-17       5.671783428048e-10       2.020932178267e-11      -7.384817367716e-14 
   17       6.480663945863e-10       4.519809517573e-16       1.617438198329e-13       1.710789591966e-17       5.159511742186e-10       1.580108463352e-11      -6.298083211417e-14 
   18       6.285992127104e-10       4.256518817604e-16       2.099525500292e-13       1.913321519141e-17       4.710411051613e-10       1.358926787855e-11      -4.658570579338e-14 
   19       6.107885279171e-10       4.202468158167e-16       2.543515057615e-13       2.127351926344e-17       4.318378464850e-10       1.336419660938e-11      -2.907477337734e-14 
   20       5.942804268375e-10       4.462642103715e-16       2.921822656419e-13       2.352907384389e-17       3.972598947907e-10       1.241027247744e-11      -1.564739709290e-14 
   21       5.790889728929e-10       5.015479303928e-16       3.224529390481e-13       2.590012625302e-17       3.667910344956e-10       1.081329632940e-11      -7.328588006297e-15 
   22       5.650352134129e-10       5.781792661489e-16       3.451613655337e-13       2.838690286037e-17       3.395997336794e-10       9.550251332841e-12      -3.364277208089e-15 
   23       5.521097671006e-10       6.718592090515e-16       3.606698034261e-13       3.098960670415e-17       3.153372580537e-10       8.592931540597e-12      -2.564121515339e-15 
   24       5.401482950005e-10       7.790766171409e-16       3.698881484796e-13       3.370841484104e-17       2.935108896016e-10       7.590969075457e-12      -3.347999985947e-15 
   25       5.291260679292e-10       8.994523398299e-16       3.740741767285e-13       3.654347888095e-17       2.738899384133e-10       6.523073956108e-12      -4.713922738778e-15 
   26       5.189166895592e-10       1.033452881890e-15       3.748886957457e-13       3.949492145556e-17       2.561281409747e-10       5.497435654418e-12      -5.807066513576e-15 
   27       5.094814518096e-10       1.181369076591e-15       3.737444961708e-13       4.256283865198e-17       2.399971441537e-10       4.711360823308e-12      -6.370104962258e-15 
   28       5.007168650935e-10       1.343459895410e-15       3.720807051278e-13       4.574729799037e-17       2.252033785231e-10       4.341647522151e-12      -6.429946607997e-15 
   29       4.926392805200e-10       1.520477718044e-15       3.708055909498e-13       4.904835005842e-17       2.117007408131e-10       4.232298898460e-12      -6.484833676789e-15 
   30       4.851869070615e-10       1.713357148657e-15       3.707637554044e-13       5.246601696341e-17       1.993969290629e-10       4.063602837096e-12      -7.310046792636e-15 
   31       4.782044983611e-10       1.922942136501e-15       3.727287151773e-13       5.600029432879e-17       1.880930081433e-10       3.535081877538e-12      -9.566786570242e-15 
   32       4.717003731720e-10       2.149477676797e-15       3.766872390578e-13       5.965117750129e-17       1.777213931637e-10       2.770603812219e-12      -1.269323353270e-14 
   33       4.656646264423e-10       2.392910024918e-15       3.822658564149e-13       6.341864285378e-17       1.681753169959e-10       2.069919264508e-12      -1.557487432782e-14 
   34       4.600278452517e-10       2.653188706531e-15       3.889147623113e-13       6.730264872402e-17       1.592905542063e-10       1.715103899945e-12      -1.709880983512e-14 
   35       4.547853132060e-10       2.930907641606e-15       3.959651411087e-13       7.130316627782e-17       1.510342064154e-10       1.642106718968e-12      -1.715794153991e-14 
   36       4.499029758143e-10       3.226888140112e-15       4.025648911174e-13       7.542015858729e-17       1.433701510361e-10       1.651960472506e-12      -1.599860872120e-14 
   37       4.453116190145e-10       3.542028568072e-15       4.078236471068e-13       7.965358323491e-17       1.362294352890e-10       1.547249362700e-12      -1.394672967035e-14 
   38       4.410227755988e-10       3.877352515616e-15       4.114151743252e-13       8.400343011194e-17       1.295983866015e-10       1.316356614326e-12      -1.134988875499e-14 
   39       4.370426452181e-10       4.233985404591e-15       4.131644273008e-13       8.846969666453e-17       1.234526185283e-10       1.008850890103e-12      -8.627137795527e-15 
   40       4.333359630854e-10       4.613148792162e-15       4.128856882575e-13       9.305237860818e-17       1.177291447685e-10       6.872501808937e-13      -6.292161048324e-15 
   41       4.298466727450e-10       5.015993730600e-15       4.104547646503e-13       9.775147902015e-17       1.123480877600e-10       4.128515257393e-13      -4.826241622687e-15 
   42       4.265776239769e-10       5.443022240678e-15       4.060548398240e-13       1.025670375909e-16       1.072943740643e-10       1.956258637406e-13      -4.233145782541e-15 
   43       4.235301075168e-10       5.894486865140e-15       4.000099607906e-13       1.074991120050e-16       1.025569829855e-10       2.944510200553e-14      -4.349336352727e-15 
   44       4.206791834449e-10       6.370540448498e-15       3.927238316899e-13       1.125477715470e-16       9.810457201724e-11      -9.448222333022e-14      -4.961296679316e-15 
   45       4.179882448003e-10       6.871322894040e-15       3.845993502232e-13       1.177130940764e-16       9.389735917070e-11      -1.862469504434e-13      -5.837302692594e-15 
   46       4.154633057216e-10       7.397267189497e-15       3.757577497218e-13       1.229951529419e-16       8.993085561968e-11      -2.522289776836e-13      -6.841648851857e-15 
   47       4.131110415277e-10       7.948874169384e-15       3.662432742397e-13       1.283940282721e-16       8.620242860518e-11      -2.989215668878e-13      -7.849097601355e-15 
   48       4.109220517536e-10       8.526626501257e-15       3.561006139117e-13       1.339098118775e-16       8.269808759346e-11      -3.344404295266e-13      -8.711682644546e-15 
   49       4.088695372150e-10       9.130987753236e-15       3.453745826932e-13       1.395426082497e-16       7.939162908905e-11      -3.686179579127e-13      -9.257506218428e-15 
   50       4.069210512323e-10       9.762408212062e-15       3.340910709478e-13       1.452925160842e-16       7.625288343772e-11      -4.107152314030e-13      -9.341643633728e-15 
   51       4.050805829061e-10       1.042134636235e-14       3.221945556805e-13       1.511595646222e-16       7.327707824597e-11      -4.616072605878e-13      -9.017936671904e-15 
   52       4.033556100957e-10       1.110825162582e-14       3.095930711182e-13       1.571437617554e-16       7.046196708673e-11      -5.196394003960e-13      -8.411752578743e-15 
   53       4.017443327473e-10       1.182355752008e-14       2.961742764663e-13       1.632451120717e-16       6.779900739417e-11      -5.828067288386e-13      -7.673172155398e-15 
   54       4.002349652127e-10       1.256768104391e-14       2.818042524650e-13       1.694636169369e-16       6.527293360563e-11      -6.487361735113e-13      -6.978239139338e-15 
   55       3.988124357931e-10       1.334102232651e-14       2.663485377715e-13       1.757992481206e-16       6.286653622188e-11      -7.150189719350e-13      -6.489309123127e-15 
   56       3.974820555614e-10       1.414396488205e-14       2.497441147585e-13       1.822518608127e-16       6.057736715282e-11      -7.803457148697e-13      -6.221699232559e-15 
   57       3.962504898239e-10       1.497687434147e-14       2.319431986076e-13       1.888212591424e-16       5.840443666290e-11      -8.436219652924e-13      -6.146099754668e-15 
   58       3.951184560851e-10       1.584009760259e-14       2.128922346457e-13       1.955072198128e-16       5.634315189365e-11      -9.036384967880e-13      -6.226235553518e-15 
   59       3.940803049596e-10       1.673396222557e-14       1.925315613880e-13       2.023094911527e-16       5.438509283363e-11      -9.590670694220e-13      -6.418521926665e-15 
   60       3.931236010834e-10       1.765877582843e-14       1.707950735815e-13       2.092277921680e-16       5.251778828839e-11      -1.008456205614e-12      -6.671720461613e-15 
   61       3.922346043610e-10       1.861475642555e-14       1.476294168276e-13       2.162618082110e-16       5.072826909711e-11      -1.050581439756e-12      -6.936915632782e-15 
   62       3.914170995075e-10       1.960180653903e-14       1.230573683986e-13       2.234111790004e-16       4.901516659590e-11      -1.085597492053e-12      -7.200839958980e-15 
   63       3.906770685547e-10       2.061968708077e-14       9.712814973456e-14       2.306755062171e-16       4.737894459790e-11      -1.114138393643e-12      -7.459452388595e-15 
   64       3.900169361878e-10       2.166807919500e-14       6.989942740354e-14       2.380543556129e-16       4.581825966162e-11      -1.136992717728e-12      -7.708261281232e-15 
   65       3.894353378709e-10       2.274658146266e-14       4.143759586691e-14       2.455472559549e-16       4.432985691000e-11      -1.155110602631e-12      -7.942307733463e-15 
   66       3.889268879718e-10       2.385470710576e-14       1.181806024509e-14       2.531536979696e-16       4.290846584963e-11      -1.169610774855e-12      -8.156148904578e-15 
   67       3.884819478867e-10       2.499188119173e-14      -1.887448091686e-14       2.608731332867e-16       4.154669618979e-11      -1.181787572134e-12      -8.343841342329e-15 
   68       3.880906028120e-10       2.615756833541e-14      -5.056773459532e-14       2.687050260850e-16       4.023708528482e-11      -1.192913791847e-12      -8.499253044102e-15 
   69       3.877560460771e-10       2.735169210142e-14      -8.327264782526e-14       2.766490225418e-16       3.897895508709e-11      -1.203587149022e-12      -8.617110338427e-15 
   70       3.874835027401e-10       2.857429595200e-14      -1.170264840789e-13       2.847048139794e-16       3.777276382198e-11      -1.214263401597e-12      -8.692134149518e-15 
   71       3.872761388900e-10       2.982542080078e-14      -1.518723859125e-13       2.928720874876e-16       3.661802902716e-11      -1.225450577087e-12      -8.718721912155e-15 
   72       3.871349374100e-10       3.110510555468e-14      -1.878596543934e-13       3.011505262159e-16       3.551327840048e-11      -1.237710773785e-12      -8.690939304990e-15 
   73       3.870585737403e-10       3.241338765582e-14      -2.250440285258e-13       3.095398096655e-16       3.445600064784e-11      -1.251661961957e-12      -8.602511983848e-15 
   74       3.870432916412e-10       3.375030362339e-14      -2.634879646777e-13       3.180396139811e-16       3.344259633100e-11      -1.267979785045e-12      -8.446817315035e-15 
   75       3.870827789563e-10       3.511588959561e-14      -3.032609160075e-13       3.266496122427e-16       3.246832871547e-11      -1.287399360861e-12      -8.216876108639e-15 
   76       3.871707250344e-10       3.651009235312e-14      -3.444218209618e-13       3.353695238493e-16       3.152852522411e-11      -1.310473926663e-12      -7.908338353010e-15 
   77       3.873093060311e-10       3.793248245958e-14      -3.869622644601e-13       3.441992724204e-16       3.062254338760e-11      -1.336795981206e-12      -7.529087267623e-15 
   78       3.875020284181e-10       3.938248955242e-14      -4.308534113843e-13       3.531388573527e-16       2.975044216473e-11      -1.365636726737e-12      -7.091379713412e-15 
   79       3.877511164678e-10       4.085948594775e-14      -4.760627939925e-13       3.621883085605e-16       2.891177236822e-11      -1.396173491819e-12      -6.609059828607e-15 
   80       3.880574430052e-10       4.236278534668e-14      -5.225542265285e-13       3.713476877743e-16       2.810555315737e-11      -1.427486546420e-12      -6.097612156459e-15 
   81       3.884204601608e-10       4.389164154154e-14      -5.702877198299e-13       3.806170898394e-16       2.733024853052e-11      -1.458555916996e-12      -5.574214772958e-15 
   82       3.888381301232e-10       4.544524712217e-14      -6.192193959385e-13       3.899966440145e-16       2.658374381765e-11      -1.488258201575e-12      -5.057792414562e-15 
   83       3.893068558919e-10       4.702273218209e-14      -6.693014027080e-13       3.994865152703e-16       2.586332217286e-11      -1.515363384847e-12      -4.569069605916e-15 
   84       3.898230420237e-10       4.862322606555e-14      -7.204893278155e-13       4.090868601441e-16       2.516634316354e-11      -1.538786370702e-12      -4.126568740802e-15 
   85       3.903882258425e-10       5.024605720346e-14      -7.727660400300e-13       4.187976830514e-16       2.449245928516e-11      -1.558396467299e-12      -3.733725679672e-15 
   86       3.910046738692e-10       5.189058418804e-14      -8.261216621375e-13       4.286189584240e-16       2.384172550634e-11      -1.574336882036e-12      -3.389725667016e-15 
   87       3.916737862238e-10       5.355613544677e-14      -8.805464630015e-13       4.385506745628e-16       2.321391830801e-11      -1.586783015494e-12      -3.093353663958e-15 
   88       3.923960547729e-10       5.524200900824e-14      -9.360308982127e-13       4.485928341726e-16       2.260852397580e-11      -1.595943557491e-12      -2.842979323924e-15 
   89       3.931710212773e-10       5.694747226782e-14      -9.925656507379e-13       4.587454548972e-16       2.202472689262e-11      -1.602061583132e-12      -2.636541968326e-15 
   90       3.939972355395e-10       5.867176175347e-14      -1.050141671570e-12       4.690085698539e-16       2.146139783106e-11      -1.605415648862e-12      -2.471535562233e-15 
   91       3.948722135510e-10       6.041408289151e-14      -1.108750220377e-12       4.793822281684e-16       2.091708224595e-11      -1.606320888513e-12      -2.344993690050e-15 
   92       3.957923956398e-10       6.217360977235e-14      -1.168382906153e-12       4.898664955097e-16       2.038998856676e-11      -1.605130109358e-12      -2.253474531197e-15 
   93       3.967544704389e-10       6.394948596180e-14      -1.229029045073e-12       5.004614104160e-16       1.987842943576e-11      -1.602196856498e-12      -2.193271390150e-15 
   94       3.977596654759e-10       6.574082758340e-14      -1.290667191211e-12       5.111668445978e-16       1.938224676328e-11      -1.597755870838e-12      -2.161113140293e-15 
   95       3.988100275096e-10       6.754672026875e-14      -1.353272401275e-12       5.219826225150e-16       1.890158035212e-11      -1.592026594812e-12      -2.153541838588e-15 
   96       3.999070914129e-10       6.936621793631e-14      -1.416818807670e-12       5.329085636434e-16       1.843642863257e-11      -1.585250168378e-12      -2.166684789480e-15 
   97       4.010518570686e-10       7.119834257154e-14      -1.481279622324e-12       5.439444824021e-16       1.798664317239e-11      -1.577690003012e-12      -2.196242616722e-15 
   98       4.022447662652e-10       7.304208400699e-14      -1.546627140511e-12       5.550901880817e-16       1.755192318686e-11      -1.569632355706e-12      -2.237477335204e-15 
   99       4.034856795929e-10       7.489639970242e-14      -1.612832744673e-12       5.663454847724e-16       1.713181004871e-11      -1.561386902962e-12      -2.285200422770e-15 
  100       4.047738533393e-10       7.676021452491e-14      -1.679866908244e-12       5.777101712916e-16       1.672568179816e-11      -1.553287314794e-12      -2.333760892051e-15 
  101       4.061079163856e-10       7.863242052899e-14      -1.747699199472e-12       5.891840411123e-16       1.633274765286e-11      -1.545691828719e-12      -2.377033362280e-15 
  102       4.074858471020e-10       8.051187673672e-14      -1.816298285245e-12       6.007668822907e-16       1.595204251796e-11      -1.538983823757e-12      -2.408406131124e-15 
  103       4.089049502441e-10       8.239740891782e-14      -1.885631934913e-12       6.124584773946e-16       1.558242149603e-11      -1.533572394426e-12      -2.420769246506e-15 
  104       4.103627653091e-10       8.428783637884e-14      -1.955667391865e-12       6.242586985204e-16       1.522282524355e-11      -1.529770972381e-12      -2.408251341389e-15 
  105       4.118599811155e-10       8.618205692573e-14      -2.026372537203e-12       6.361678071202e-16       1.487312868898e-11      -1.527413281428e-12      -2.371723034958e-15 
  106       4.133978737013e-10       8.807897302193e-14      -2.097714891126e-12       6.481861947314e-16       1.453339726287e-11      -1.526186332216e-12      -2.314018184070e-15 
  107       4.149773973080e-10       8.997746588027e-14      -2.169661266976e-12       6.603142924651e-16       1.420362380614e-11      -1.525746984983e-12      -2.238258708550e-15 
