# dimensionless total [l(l+1)/2pi] C_l's
# for l=2 to 3000, i.e. number of multipoles equal to 2999
#
# -> if you prefer output in CAMB/HealPix/LensPix units/order, set 'format' to 'camb' in input file
# -> if you don't want to see such a header, set 'headers' to 'no' in input file
# -> for CMB lensing (phi), these are C_l^phi-phi for the lensing potential.
#    Remember the conversion factors:
#    C_l^dd (deflection) = l(l+1) C_l^phi-phi
#    C_l^gg (shear/convergence) = 1/4 (l(l+1))^2 C_l^phi-phi
#
# 1:l     2:TT                     3:EE                     4:TE                     5:BB                     6:phiphi                 7:TPhi                   8:Ephi               
    2       1.236077689666e-09       6.254446679683e-15       2.183995111034e-12       0.000000000000e+00       8.549859636058e-09       1.815175900811e-11      -2.255905890071e-12 
    3       1.202126192191e-09       7.984042120885e-15       2.379109536373e-12       0.000000000000e+00       5.286941010119e-09       7.253163137348e-11      -1.707953685014e-12 
    4       1.152449411080e-09       6.866123220105e-15       2.218077173842e-12       0.000000000000e+00       3.703767261254e-09       7.808795756678e-11      -1.116035572154e-12 
    5       1.100839105554e-09       4.528767335341e-15       1.883763151924e-12       0.000000000000e+00       2.782497693110e-09       7.182963753717e-11      -6.159424992531e-13 
    6       1.051133027659e-09       2.481091456121e-15       1.487522887262e-12       0.000000000000e+00       2.186346169265e-09       6.333001909792e-11      -2.454833702459e-13 
    7       1.004538098910e-09       1.312392491379e-15       1.101030458411e-12       0.000000000000e+00       1.773987633716e-09       5.507528379018e-11      -7.491598579772e-15 
    8       9.612471213995e-10       8.529913689089e-16       7.633544561837e-13       0.000000000000e+00       1.474077155639e-09       4.777997997375e-11       1.148299066911e-13 
    9       9.210624083346e-10       7.054849070551e-16       4.921356162088e-13       0.000000000000e+00       1.247296683415e-09       4.155721986064e-11       1.487054393472e-13 
   10       8.839739609796e-10       6.092048821220e-16       2.911293921718e-13       0.000000000000e+00       1.070685760449e-09       3.628110564224e-11       1.250541794295e-13 
   11       8.496957023667e-10       5.053960269639e-16       1.554748682187e-13       0.000000000000e+00       8.984781677130e-10       3.051631098262e-11       7.287101683756e-14 
   12       8.179684318072e-10       4.293460066618e-16       7.575152640474e-14       0.000000000000e+00       7.876400884340e-10       2.769754637139e-11       1.634177280022e-14 
   13       7.886415980315e-10       4.020618403050e-16       4.084319696941e-14       0.000000000000e+00       6.969668164981e-10       2.235492556784e-11      -3.009313164109e-14 
   14       7.615248056529e-10       4.020714606322e-16       3.963848006971e-14       0.000000000000e+00       6.208218168880e-10       2.090225700018e-11      -5.755889259423e-14 
   15       7.363890384184e-10       3.958111202622e-16       6.193196771910e-14       0.000000000000e+00       5.567175931347e-10       1.870246056905e-11      -6.606077662510e-14 
   16       7.131040837429e-10       3.705094035214e-16       9.886151166022e-14       0.000000000000e+00       5.025189455074e-10       1.382660128800e-11      -6.029496592300e-14 
   17       6.914990889258e-10       3.388151165783e-16       1.433063660790e-13       0.000000000000e+00       4.553852309743e-10       1.305496118010e-11      -4.408590127934e-14 
   18       6.714197002777e-10       3.224179438913e-16       1.896252263757e-13       0.000000000000e+00       4.143921484554e-10       1.235368896344e-11      -2.523552836040e-14 
   19       6.529744163131e-10       3.295522633358e-16       2.341929848217e-13       0.000000000000e+00       3.790644363355e-10       1.074257830772e-11      -8.392732833130e-15 
   20       6.357650654326e-10       3.618014266071e-16       2.738128016998e-13       0.000000000000e+00       3.478545997824e-10       9.428486297609e-12       3.139494613391e-15 
   21       6.198450634050e-10       4.133790041559e-16       3.068958718180e-13       0.000000000000e+00       3.202829123893e-10       8.445143738744e-12       8.755372839052e-15 
   22       6.050843014234e-10       4.753276920834e-16       3.326944882366e-13       0.000000000000e+00       2.957642302494e-10       7.438502730373e-12       9.246587977480e-15 
   23       5.914641598960e-10       5.462194434487e-16       3.511114909628e-13       0.000000000000e+00       2.739710594324e-10       6.425078425678e-12       6.218378194268e-15 
   24       5.787869004220e-10       6.269524727197e-16       3.626737347558e-13       0.000000000000e+00       2.543913590785e-10       5.516331569692e-12       1.807662916912e-15 
   25       5.670528682341e-10       7.183870469052e-16       3.684139362250e-13       0.000000000000e+00       2.368111352808e-10       4.647285539203e-12      -2.742977446657e-15 
   26       5.561664346086e-10       8.211802301494e-16       3.698689703669e-13       0.000000000000e+00       2.209315273514e-10       3.736213057536e-12      -6.440614869118e-15 
   27       5.460741573201e-10       9.351373901645e-16       3.685609059957e-13       0.000000000000e+00       2.065443854192e-10       2.988860255880e-12      -8.912053235547e-15 
   28       5.366410981814e-10       1.059829400227e-15       3.661549416208e-13       0.000000000000e+00       1.933781901556e-10       2.651860210286e-12      -1.009451665168e-14 
   29       5.278910195470e-10       1.195752299071e-15       3.637669031074e-13       0.000000000000e+00       1.813848768108e-10       2.589568549839e-12      -1.045092439975e-14 
   30       5.197777739897e-10       1.343723947382e-15       3.624985344811e-13       0.000000000000e+00       1.704751043875e-10       2.489253710546e-12      -1.076353950583e-14 
   31       5.121549688562e-10       1.504533860520e-15       3.634092964822e-13       0.000000000000e+00       1.604647873913e-10       2.054485960417e-12      -1.176723589158e-14 
   32       5.050257711022e-10       1.678587859346e-15       3.666208332260e-13       0.000000000000e+00       1.512930410106e-10       1.394061690166e-12      -1.313939286707e-14 
   33       4.983640040630e-10       1.866122451663e-15       3.718589416114e-13       0.000000000000e+00       1.428666917485e-10       7.831679687107e-13      -1.411957769956e-14 
   34       4.920806665545e-10       2.067434730157e-15       3.786605369333e-13       0.000000000000e+00       1.350413520369e-10       4.818662956369e-13      -1.396912735424e-14 
   35       4.861722708362e-10       2.283386440051e-15       3.863480033600e-13       0.000000000000e+00       1.277853083559e-10       4.353330045323e-13      -1.270982309362e-14 
   36       4.806103012062e-10       2.515082592065e-15       3.940167078781e-13       0.000000000000e+00       1.210625011007e-10       4.667746639628e-13      -1.064672036874e-14 
   37       4.753292817208e-10       2.763547356705e-15       4.007040132370e-13       0.000000000000e+00       1.148078940074e-10       4.004351596367e-13      -8.151209696311e-15 
   38       4.703445698520e-10       3.029042175407e-15       4.060053750309e-13       0.000000000000e+00       1.090080691714e-10       2.241524289639e-13      -5.559819478408e-15 
   39       4.656645484439e-10       3.311516103669e-15       4.096494689042e-13       0.000000000000e+00       1.036410885763e-10      -2.062141932452e-14      -3.251161744517e-15 
   40       4.612536603818e-10       3.610776167458e-15       4.113307365000e-13       0.000000000000e+00       9.865115724213e-11      -2.814051123196e-13      -1.678825391932e-15 
   41       4.570541200189e-10       3.926662770260e-15       4.108054320494e-13       0.000000000000e+00       9.396760670635e-11      -5.061537969536e-13      -1.238716606055e-15 
   42       4.530697522033e-10       4.259667395824e-15       4.082219538893e-13       0.000000000000e+00       8.957633924666e-11      -6.838995886011e-13      -1.808378091155e-15 
   43       4.493023008978e-10       4.610500019789e-15       4.038948346574e-13       0.000000000000e+00       8.546669695868e-11      -8.161122110743e-13      -3.065239085013e-15 
   44       4.457254128460e-10       4.979924735613e-15       3.982208051464e-13       0.000000000000e+00       8.161014376177e-11      -9.057517434193e-13      -4.605948733843e-15 
   45       4.423004816127e-10       5.368668028944e-15       3.916104605874e-13       0.000000000000e+00       7.797092883238e-11      -9.581859065618e-13      -6.026841201839e-15 
   46       4.390356300242e-10       5.777103308335e-15       3.842475153265e-13       0.000000000000e+00       7.454524836537e-11      -9.840082199152e-13      -7.205693919609e-15 
   47       4.359401731143e-10       6.205477541673e-15       3.762657914492e-13       0.000000000000e+00       7.133135908914e-11      -9.972505637021e-13      -8.095775179844e-15 
   48       4.330064716541e-10       6.653995827322e-15       3.678167352266e-13       0.000000000000e+00       6.831778669952e-11      -1.014802692344e-12      -8.647702142752e-15 
   49       4.302085243714e-10       7.122819147591e-15       3.590700338990e-13       0.000000000000e+00       6.548259229957e-11      -1.056569329057e-12      -8.809405203022e-15 
   50       4.275140489029e-10       7.612082869519e-15       3.501637726344e-13       0.000000000000e+00       6.280001173612e-11      -1.139112007945e-12      -8.551683932001e-15 
   51       4.249278566061e-10       8.121963379434e-15       3.410375246967e-13       0.000000000000e+00       6.026420005661e-11      -1.254175530276e-12      -7.953135474416e-15 
   52       4.224578179145e-10       8.652625652325e-15       3.315550216373e-13       0.000000000000e+00       5.787066421289e-11      -1.384604305141e-12      -7.138217411015e-15 
   53       4.201016479498e-10       9.204202845307e-15       3.215489372659e-13       0.000000000000e+00       5.560907604793e-11      -1.510202206241e-12      -6.254811970262e-15 
   54       4.178461335045e-10       9.776795027436e-15       3.108191298528e-13       0.000000000000e+00       5.346288569545e-11      -1.607583066374e-12      -5.475394704722e-15 
   55       4.156745646216e-10       1.037052899824e-14       2.991686988705e-13       0.000000000000e+00       5.141432325233e-11      -1.656354725243e-12      -4.956891907536e-15 
   56       4.135929621548e-10       1.098575805499e-14       2.865266714026e-13       0.000000000000e+00       4.946174449394e-11      -1.659812672198e-12      -4.705897688051e-15 
   57       4.116090116983e-10       1.162290962704e-14       2.728527147534e-13       0.000000000000e+00       4.760591704605e-11      -1.629125277945e-12      -4.682020952707e-15 
   58       4.097239863487e-10       1.228242962088e-14       2.581017138898e-13       0.000000000000e+00       4.584483682214e-11      -1.577545781474e-12      -4.835831832933e-15 
   59       4.079322933481e-10       1.296478352997e-14       2.422234869381e-13       0.000000000000e+00       4.417355135580e-11      -1.520509546361e-12      -5.108420831917e-15 
   60       4.062210207275e-10       1.367045754468e-14       2.251625006808e-13       0.000000000000e+00       4.258398313308e-11      -1.475731317058e-12      -5.430957971383e-15 
   61       4.045758325023e-10       1.439981972832e-14       2.068753119258e-13       0.000000000000e+00       4.106729950633e-11      -1.458873698989e-12      -5.738638988505e-15 
   62       4.030012261691e-10       1.515266462172e-14       1.873881100315e-13       0.000000000000e+00       3.962204372673e-11      -1.469196439982e-12      -6.017179285622e-15 
   63       4.015040384249e-10       1.592856792459e-14       1.667516443433e-13       0.000000000000e+00       3.824752381539e-11      -1.500843899555e-12      -6.266021239039e-15 
   64       4.000872509188e-10       1.672701414527e-14       1.450249104777e-13       0.000000000000e+00       3.694133306429e-11      -1.546947174226e-12      -6.484883374495e-15 
   65       3.987497383298e-10       1.754739327062e-14       1.222754282467e-13       0.000000000000e+00       3.569925416966e-11      -1.599580832097e-12      -6.673776004152e-15 
   66       3.974860164446e-10       1.838899743591e-14       9.857951958376e-14       0.000000000000e+00       3.451516336554e-11      -1.649719647426e-12      -6.833016863598e-15 
   67       3.962859902356e-10       1.925101759474e-14       7.402258646876e-14       0.000000000000e+00       3.338093455716e-11      -1.687195335211e-12      -6.963246748834e-15 
   68       3.951392822857e-10       2.013270343087e-14       4.867847619875e-14       0.000000000000e+00       3.228859253936e-11      -1.703177490495e-12      -7.064779561957e-15 
   69       3.940497996372e-10       2.103388816388e-14       2.254210072562e-14       0.000000000000e+00       3.123749358121e-11      -1.698296867672e-12      -7.135464564477e-15 
   70       3.930236795680e-10       2.195456458920e-14      -4.416399231243e-15       0.000000000000e+00       3.022843428310e-11      -1.676097930235e-12      -7.172417060996e-15 
   71       3.920648380412e-10       2.289473207479e-14      -3.223220186945e-14       0.000000000000e+00       2.926149356977e-11      -1.640681193030e-12      -7.172644303432e-15 
   72       3.911748349275e-10       2.385439740600e-14      -6.094606122882e-14       0.000000000000e+00       2.833599434512e-11      -1.596724514504e-12      -7.133044105225e-15 
   73       3.903527392276e-10       2.483357563044e-14      -9.060456411668e-14       0.000000000000e+00       2.745046514696e-11      -1.549504388940e-12      -7.050403455528e-15 
   74       3.895949942940e-10       2.583229090292e-14      -1.212603870331e-13       0.000000000000e+00       2.660260180193e-11      -1.504917238711e-12      -6.921397133411e-15 
   75       3.888952830534e-10       2.685057733030e-14      -1.529725530960e-13       0.000000000000e+00       2.578922908023e-11      -1.469500706514e-12      -6.742586322064e-15 
   76       3.882471658748e-10       2.788838685466e-14      -1.857910610207e-13       0.000000000000e+00       2.500711386217e-11      -1.448874156152e-12      -6.512299394233e-15 
   77       3.876528474432e-10       2.894529164233e-14      -2.197069681123e-13       0.000000000000e+00       2.425566059358e-11      -1.442684792175e-12      -6.236673286742e-15 
   78       3.871157711307e-10       3.002072870689e-14      -2.546936291566e-13       0.000000000000e+00       2.353463997792e-11      -1.448774342734e-12      -5.924716400412e-15 
   79       3.866379115150e-10       3.111408701213e-14      -2.907214543277e-13       0.000000000000e+00       2.284336052364e-11      -1.464667149093e-12      -5.586560770340e-15 
   80       3.862196964564e-10       3.222470641065e-14      -3.277578456490e-13       0.000000000000e+00       2.218064766000e-11      -1.487559042470e-12      -5.233499275536e-15 
   81       3.858599291758e-10       3.335187658253e-14      -3.657671334553e-13       0.000000000000e+00       2.154482285276e-11      -1.514306220867e-12      -4.878022848575e-15 
   82       3.855557103321e-10       3.449483597393e-14      -4.047105128539e-13       0.000000000000e+00       2.093368272001e-11      -1.541414125905e-12      -4.533857685240e-15 
   83       3.853023600998e-10       3.565277073571e-14      -4.445459801867e-13       0.000000000000e+00       2.034447814785e-11      -1.565026319657e-12      -4.216002454169e-15 
   84       3.850953294349e-10       3.682486941393e-14      -4.852343310497e-13       0.000000000000e+00       1.977457899084e-11      -1.581789071397e-12      -3.937339459334e-15 
   85       3.849364686108e-10       3.801049976321e-14      -5.267584360125e-13       0.000000000000e+00       1.922364052921e-11      -1.591634166063e-12      -3.697741127804e-15 
   86       3.848286598373e-10       3.920905943560e-14      -5.691070587681e-13       0.000000000000e+00       1.869175954400e-11      -1.595439177669e-12      -3.493217433861e-15 
   87       3.847738766340e-10       4.041992271236e-14      -6.122691164626e-13       0.000000000000e+00       1.817881144137e-11      -1.594196318621e-12      -3.319161309117e-15 
   88       3.847731393390e-10       4.164244037962e-14      -6.562337180314e-13       0.000000000000e+00       1.768444089077e-11      -1.589016034366e-12      -3.170328271528e-15 
   89       3.848264706186e-10       4.287593960401e-14      -7.009902025364e-13       0.000000000000e+00       1.720805246316e-11      -1.581130598035e-12      -3.040816054418e-15 
   90       3.849328509764e-10       4.411972380828e-14      -7.465281775017e-13       0.000000000000e+00       1.674880126916e-11      -1.571897705097e-12      -2.924044235501e-15 
   91       3.850901742628e-10       4.537307254696e-14      -7.928375572507e-13       0.000000000000e+00       1.630558359726e-11      -1.562804068000e-12      -2.812733865898e-15 
   92       3.852952031840e-10       4.663524138199e-14      -8.399086012423e-13       0.000000000000e+00       1.587702755199e-11      -1.555469010823e-12      -2.698887099163e-15 
   93       3.855449069791e-10       4.790546479928e-14      -8.877294534317e-13       0.000000000000e+00       1.546182841291e-11      -1.551268825697e-12      -2.575649420977e-15 
   94       3.858408012226e-10       4.918296573030e-14      -9.362782537491e-13       0.000000000000e+00       1.505983274204e-11      -1.550137407498e-12      -2.443260968495e-15 
   95       3.861851815064e-10       5.046694723929e-14      -9.855299055464e-13       0.000000000000e+00       1.467110077585e-11      -1.551591041329e-12      -2.303966790803e-15 
   96       3.865797742544e-10       5.175658952839e-14      -1.035458472839e-12       0.000000000000e+00       1.429557166473e-11      -1.555089978618e-12      -2.160219399380e-15 
   97       3.870257112043e-10       5.305104985500e-14      -1.086037184339e-12       0.000000000000e+00       1.393305884308e-11      -1.560036826026e-12      -2.014684239266e-15 
   98       3.875235038900e-10       5.434946244920e-14      -1.137238437490e-12       0.000000000000e+00       1.358324539941e-11      -1.565774934350e-12      -1.870245160233e-15 
   99       3.880730181231e-10       5.565093843110e-14      -1.189033802497e-12       0.000000000000e+00       1.324567944648e-11      -1.571586787431e-12      -1.730009887960e-15 
  100       3.886734484759e-10       5.695456572823e-14      -1.241394026365e-12       0.000000000000e+00       1.291976949139e-11      -1.576692391062e-12      -1.597315495201e-15 
  101       3.893232927626e-10       5.825940899291e-14      -1.294289036927e-12       0.000000000000e+00       1.260477980568e-11      -1.580247661894e-12      -1.475733872959e-15 
  102       3.900203265220e-10       5.956450951964e-14      -1.347687946883e-12       0.000000000000e+00       1.229982579547e-11      -1.581342816342e-12      -1.369077201657e-15 
  103       3.907615774995e-10       6.086888516245e-14      -1.401559057828e-12       0.000000000000e+00       1.200386937157e-11      -1.579000759490e-12      -1.281403422307e-15 
  104       3.915443464929e-10       6.217155360506e-14      -1.455870431720e-12       0.000000000000e+00       1.171595774246e-11      -1.572433598002e-12      -1.216091368532e-15 
  105       3.923694819060e-10       6.347160592922e-14      -1.510591684501e-12       0.000000000000e+00       1.143598650284e-11      -1.561855112400e-12      -1.172912091170e-15 
  106       3.932385020258e-10       6.476814287657e-14      -1.565692443415e-12       0.000000000000e+00       1.116403147572e-11      -1.547775545345e-12      -1.150570270406e-15 
  107       3.941525743099e-10       6.606025255530e-14      -1.621141811356e-12       0.000000000000e+00       1.090011256318e-11      -1.530754489083e-12      -1.147594531492e-15 
