# dimensionless total [l(l+1)/2pi] C_l's
# for l=2 to 3000, i.e. number of multipoles equal to 2999
#
# -> if you prefer output in CAMB/HealPix/LensPix units/order, set 'format' to 'camb' in input file
# -> if you don't want to see such a header, set 'headers' to 'no' in input file
# -> for CMB lensing (phi), these are C_l^phi-phi for the lensing potential.
#    Remember the conversion factors:
#    C_l^dd (deflection) = l(l+1) C_l^phi-phi
#    C_l^gg (shear/convergence) = 1/4 (l(l+1))^2 C_l^phi-phi
#
# 1:l     2:TT                     3:EE                     4:TE                     5:BB                     6:phiphi                 7:TPhi                   8:Ephi               
    2       1.302043414085e-10       8.612024622636e-16       1.500771280693e-13       0.000000000000e+00       1.088697859301e-08       5.107892504065e-10      -8.354360050968e-13 
    3       1.248931559567e-10       1.120139551312e-15       1.740549053182e-13       0.000000000000e+00       6.915370063087e-09       3.719974746463e-10      -6.355701180410e-13 
    4       1.203683517332e-10       9.922711728237e-16       1.692236765994e-13       0.000000000000e+00       4.962542566795e-09       2.898307836375e-10      -4.181143591870e-13 
    5       1.177094833142e-10       6.965511417777e-16       1.527259872214e-13       0.000000000000e+00       3.823247853333e-09       2.355513812468e-10      -2.349744703628e-13 
    6       1.167502339239e-10       4.345644223588e-16       1.342684718830e-13       0.000000000000e+00       3.077947110836e-09       1.970527816667e-10      -1.005673068313e-13 
    7       1.171751699766e-10       2.843925813020e-16       1.192380932753e-13       0.000000000000e+00       2.554002104331e-09       1.684183757894e-10      -1.560212807601e-14 
    8       1.186496508356e-10       2.264051650476e-16       1.098288675108e-13       0.000000000000e+00       2.166690050880e-09       1.464133096413e-10       2.691746966344e-14 
    9       1.210457677895e-10       2.142131240798e-16       1.064410227824e-13       0.000000000000e+00       1.869739036319e-09       1.290800141781e-10       3.792989175314e-14 
   10       1.242309946850e-10       2.194445257468e-16       1.084893909025e-13       0.000000000000e+00       1.635577137190e-09       1.150884525689e-10       2.948673740167e-14 
   11       1.279972937636e-10       2.373247351671e-16       1.149808858183e-13       0.000000000000e+00       1.315570619876e-09       1.008601634317e-10       1.294990278322e-14 
   12       1.323480613287e-10       2.730896127884e-16       1.248201537045e-13       0.000000000000e+00       1.168552071238e-09       9.106359374787e-11      -4.207381831072e-15 
   13       1.372064644793e-10       3.306077428059e-16       1.369777667980e-13       0.000000000000e+00       1.046463335821e-09       8.261709781532e-11      -1.696758235342e-14 
   14       1.425309614897e-10       4.103153045723e-16       1.505983458455e-13       0.000000000000e+00       9.437317687866e-10       7.549829735591e-11      -2.307934481308e-14 
   15       1.482933734097e-10       5.123632147762e-16       1.649668108427e-13       0.000000000000e+00       8.563117134081e-10       6.939675423365e-11      -2.314641436704e-14 
   16       1.544129152457e-10       6.386927364306e-16       1.797028572471e-13       0.000000000000e+00       7.811837182939e-10       6.399525176003e-11      -1.943206394935e-14 
   17       1.610005581050e-10       7.922948680270e-16       1.944816585652e-13       0.000000000000e+00       7.160513994756e-10       5.916867045996e-11      -1.449265840448e-14 
   18       1.679117931393e-10       9.757590233262e-16       2.090625883290e-13       0.000000000000e+00       6.589053553672e-10       5.491499169128e-11      -1.030648623971e-14 
   19       1.751498522529e-10       1.191140294564e-15       2.233469679381e-13       0.000000000000e+00       6.090897595891e-10       5.119753378706e-11      -7.868333043127e-15 
   20       1.827415772570e-10       1.440231589444e-15       2.372552064309e-13       0.000000000000e+00       5.647624510688e-10       4.785647348053e-11      -7.758953033498e-15 
   21       1.906730554483e-10       1.725592152932e-15       2.506123188318e-13       0.000000000000e+00       5.253380059145e-10       4.485135734247e-11      -9.504391139646e-15 
   22       1.988920772930e-10       2.049997984816e-15       2.632020741926e-13       0.000000000000e+00       4.899968415600e-10       4.213422083006e-11      -1.207363932125e-14 
   23       2.074224867304e-10       2.416160882361e-15       2.748611009174e-13       0.000000000000e+00       4.583307505575e-10       3.969037569391e-11      -1.455520954989e-14 
   24       2.162884403692e-10       2.826818208244e-15       2.854275233785e-13       0.000000000000e+00       4.296754047120e-10       3.748018889265e-11      -1.607950620309e-14 
   25       2.254766014688e-10       3.285087493381e-15       2.946876805410e-13       0.000000000000e+00       4.037506201163e-10       3.545535283580e-11      -1.650855492592e-14 
   26       2.349481728572e-10       3.794226209103e-15       3.024188544859e-13       0.000000000000e+00       3.801436822736e-10       3.355221696813e-11      -1.601548538550e-14 
   27       2.446987815263e-10       4.357389494439e-15       3.084937848629e-13       0.000000000000e+00       3.586151739426e-10       3.178073266369e-11      -1.495798160233e-14 
   28       2.547258283012e-10       4.977746958608e-15       3.128171538216e-13       0.000000000000e+00       3.388363319535e-10       3.015978778633e-11      -1.379036599912e-14 
   29       2.650370780571e-10       5.658644311067e-15       3.152685337336e-13       0.000000000000e+00       3.207355801991e-10       2.868510596578e-11      -1.280799911813e-14 
   30       2.756322881928e-10       6.403524126506e-15       3.157234984705e-13       0.000000000000e+00       3.041471750785e-10       2.732857731406e-11      -1.230196719130e-14 
   31       2.865016490444e-10       7.215876179111e-15       3.140581893504e-13       0.000000000000e+00       2.887662688097e-10       2.605148472189e-11      -1.251530989217e-14 
   32       2.976495079978e-10       8.099180833888e-15       3.101340585540e-13       0.000000000000e+00       2.745345844248e-10       2.485491725895e-11      -1.325840463365e-14 
   33       3.090770320099e-10       9.056938489068e-15       3.038074453281e-13       0.000000000000e+00       2.613707068973e-10       2.374609885890e-11      -1.413952643311e-14 
   34       3.207779053370e-10       1.009266497605e-14       2.949319395072e-13       0.000000000000e+00       2.491124675741e-10       2.272441838202e-11      -1.475463744416e-14 
   35       3.327492348186e-10       1.120983847452e-14       2.833532047750e-13       0.000000000000e+00       2.377120335857e-10       2.178132755940e-11      -1.503109616253e-14 
   36       3.449826638313e-10       1.241192557536e-14       2.689120145687e-13       0.000000000000e+00       2.270924860235e-10       2.089887630962e-11      -1.500230291908e-14 
   37       3.574662759721e-10       1.370239931718e-14       2.514535962891e-13       0.000000000000e+00       2.171321227804e-10       2.005601715556e-11      -1.472311646142e-14 
   38       3.702043242703e-10       1.508477137059e-14       2.308558139154e-13       0.000000000000e+00       2.078154314164e-10       1.925322775447e-11      -1.428559201245e-14 
   39       3.832029150540e-10       1.656256237634e-14       2.070106766378e-13       0.000000000000e+00       1.991220764775e-10       1.849518066614e-11      -1.381114348858e-14 
   40       3.964641108025e-10       1.813928757728e-14       1.798173893799e-13       0.000000000000e+00       1.909806725414e-10       1.778378751083e-11      -1.344853572646e-14 
   41       4.099866897207e-10       1.981844575351e-14       1.491751215216e-13       0.000000000000e+00       1.832960681983e-10       1.711837661040e-11      -1.333267076960e-14 
   42       4.237698800182e-10       2.160349255296e-14       1.149573669632e-13       0.000000000000e+00       1.760527902933e-10       1.649698025853e-11      -1.344070409017e-14 
   43       4.378100303517e-10       2.349785087725e-14       7.703001804853e-14       0.000000000000e+00       1.692376353011e-10       1.591498702621e-11      -1.369196479855e-14 
   44       4.520990841695e-10       2.550491180459e-14       3.525827621866e-14       0.000000000000e+00       1.628084453486e-10       1.536446696173e-11      -1.398561528881e-14 
   45       4.666282040762e-10       2.762804473073e-14      -1.049130688248e-14       0.000000000000e+00       1.567108457964e-10       1.483668474682e-11      -1.422443086654e-14 
   46       4.814008716115e-10       2.987064315457e-14      -6.034382398054e-14       0.000000000000e+00       1.509399648669e-10       1.433113160963e-11      -1.439754560991e-14 
   47       4.964230291645e-10       3.223608410054e-14      -1.144210347370e-13       0.000000000000e+00       1.454931668280e-10       1.384876302227e-11      -1.452032967459e-14 
   48       5.116992382717e-10       3.472771017365e-14      -1.728432362359e-13       0.000000000000e+00       1.403513463772e-10       1.338937546134e-11      -1.461170701248e-14 
   49       5.272325145924e-10       3.734882544531e-14      -2.357292071995e-13       0.000000000000e+00       1.354776770941e-10       1.295151259595e-11      -1.469435334350e-14 
   50       5.430242281015e-10       4.010273701296e-14      -3.031988011047e-13       0.000000000000e+00       1.308296397048e-10       1.253316338213e-11      -1.478912544499e-14 
   51       5.590741545842e-10       4.299290252239e-14      -3.753816847503e-13       0.000000000000e+00       1.264018595109e-10       1.213429737995e-11      -1.489610709820e-14 
   52       5.753801528649e-10       4.602281557722e-14      -4.524108752482e-13       0.000000000000e+00       1.221927333192e-10       1.175485545979e-11      -1.500876048454e-14 
   53       5.919379426993e-10       4.919596164698e-14      -5.344203656726e-13       0.000000000000e+00       1.181915541526e-10       1.139396283942e-11      -1.511917345101e-14 
   54       6.087409428193e-10       5.251581610237e-14      -6.215451939292e-13       0.000000000000e+00       1.143778846347e-10       1.104987253816e-11      -1.521798601456e-14 
   55       6.257825216413e-10       5.598580204967e-14      -7.139147726792e-13       0.000000000000e+00       1.107284201377e-10       1.072054941239e-11      -1.529685483642e-14 
   56       6.430637751662e-10       5.960915606878e-14      -8.116307809486e-13       0.000000000000e+00       1.072410102965e-10       1.040572170458e-11      -1.535673195501e-14 
   57       6.605873975999e-10       6.338902568026e-14      -9.147839009510e-13       0.000000000000e+00       1.039155073881e-10       1.010524009866e-11      -1.540151393459e-14 
   58       6.783553715010e-10       6.732850316975e-14      -1.023459886370e-12       0.000000000000e+00       1.007464718818e-10       9.818450890498e-12      -1.543570891711e-14 
   59       6.963688998259e-10       7.143062205703e-14      -1.137739368674e-12       0.000000000000e+00       9.772283763282e-11       9.544164399827e-12      -1.546446200848e-14 
   60       7.146283379736e-10       7.569835356494e-14      -1.257697663427e-12       0.000000000000e+00       9.482757707536e-11       9.280623382144e-12      -1.549358066486e-14 
   61       7.331336747886e-10       8.013457501885e-14      -1.383409886809e-12       0.000000000000e+00       9.204281268492e-11       9.026032830138e-12      -1.552788864272e-14 
   62       7.518862554693e-10       8.474197474418e-14      -1.514968085381e-12       0.000000000000e+00       8.936724950571e-11       8.780359803828e-12      -1.556579866694e-14 
   63       7.708873265571e-10       8.952311945913e-14      -1.652467625077e-12       0.000000000000e+00       8.680207922865e-11       8.543883376553e-12      -1.560356104413e-14 
   64       7.901374715677e-10       9.448047612655e-14      -1.796002195590e-12       0.000000000000e+00       8.434572041460e-11       8.316655391655e-12      -1.563680050102e-14 
   65       8.096365604537e-10       9.961640753233e-14      -1.945663785168e-12       0.000000000000e+00       8.199365649398e-11       8.098486686853e-12      -1.566048853737e-14 
   66       8.293836990678e-10       1.049331678638e-13      -2.101542655426e-12       0.000000000000e+00       7.973827376622e-11       7.888933318627e-12      -1.566891577883e-14 
   67       8.493771786251e-10       1.104328982879e-13      -2.263727316139e-12       0.000000000000e+00       7.756869939929e-11       7.687282786595e-12      -1.565566432982e-14 
   68       8.696152225507e-10       1.161177056565e-13      -2.432302881346e-12       0.000000000000e+00       7.547393773931e-11       7.492774009324e-12      -1.561551040041e-14 
   69       8.900985157140e-10       1.219899270223e-13      -2.607345807172e-12       0.000000000000e+00       7.345337931307e-11       7.305339803345e-12      -1.555064166307e-14 
   70       9.108280992512e-10       1.280519110241e-13      -2.788928037581e-12       0.000000000000e+00       7.150813998524e-11       7.124990794057e-12      -1.546565581794e-14 
   71       9.318045889230e-10       1.343059372475e-13      -2.977118463340e-12       0.000000000000e+00       6.963787480404e-11       6.951587318143e-12      -1.536576311639e-14 
   72       9.530281449704e-10       1.407542139299e-13      -3.171982855417e-12       0.000000000000e+00       6.784070035653e-11       6.784831626248e-12      -1.525680808164e-14 
   73       9.744984419717e-10       1.473988756644e-13      -3.373583798389e-12       0.000000000000e+00       6.611311712387e-11       6.624260085655e-12      -1.514529122919e-14 
   74       9.962146386983e-10       1.542419811043e-13      -3.581980623843e-12       0.000000000000e+00       6.444993183661e-11       6.469235382962e-12      -1.503839078734e-14 
   75       1.018175347971e-09       1.612855106676e-13      -3.797229343780e-12       0.000000000000e+00       6.284417982998e-11       6.318938726760e-12      -1.494398441770e-14 
   76       1.040379199644e-09       1.685313337628e-13      -4.019384360791e-12       0.000000000000e+00       6.128898849110e-11       6.172593478508e-12      -1.486874909541e-14 
   77       1.062826714709e-09       1.759811086417e-13      -4.248504105840e-12       0.000000000000e+00       5.978373154100e-11       6.030200361525e-12      -1.481201271069e-14 
   78       1.085518719765e-09       1.836363600287e-13      -4.484646312345e-12       0.000000000000e+00       5.832886116490e-11       5.891922777628e-12      -1.477081552991e-14 
   79       1.108455766521e-09       1.914985051056e-13      -4.727866300930e-12       0.000000000000e+00       5.692402925174e-11       5.757864270386e-12      -1.474171516842e-14 
   80       1.131638113813e-09       1.995688505915e-13      -4.978216949265e-12       0.000000000000e+00       5.556804955309e-11       5.628065473415e-12      -1.472076890218e-14 
   81       1.155065709623e-09       2.078485898216e-13      -5.235748661901e-12       0.000000000000e+00       5.425885984216e-11       5.502501058681e-12      -1.470351597935e-14 
   82       1.178738173099e-09       2.163387998269e-13      -5.500509340110e-12       0.000000000000e+00       5.299348407265e-11       5.381076684798e-12      -1.468495993192e-14 
   83       1.202654776573e-09       2.250404384136e-13      -5.772544351721e-12       0.000000000000e+00       5.176799453776e-11       5.263625945331e-12      -1.465955088730e-14 
   84       1.226814795658e-09       2.339543781452e-13      -6.051895817787e-12       0.000000000000e+00       5.057855150925e-11       5.149963214369e-12      -1.462255186173e-14 
   85       1.251218665603e-09       2.430815211601e-13      -6.338600402776e-12       0.000000000000e+00       4.942480307105e-11       5.040058933756e-12      -1.457443663274e-14 
   86       1.275866984563e-09       2.524226981222e-13      -6.632691101038e-12       0.000000000000e+00       4.830698214686e-11       4.933887924740e-12      -1.451719189981e-14 
   87       1.300760150941e-09       2.619786307437e-13      -6.934197846370e-12       0.000000000000e+00       4.722485969105e-11       4.831373993250e-12      -1.445300361530e-14 
   88       1.325898351598e-09       2.717499294847e-13      -7.243147470374e-12       0.000000000000e+00       4.617772495648e-11       4.732387817641e-12      -1.438426255626e-14 
   89       1.351281550050e-09       2.817370912530e-13      -7.559563660812e-12       0.000000000000e+00       4.516436576236e-11       4.636744836445e-12      -1.431356989622e-14 
   90       1.376909474683e-09       2.919404971033e-13      -7.883466919960e-12       0.000000000000e+00       4.418304876209e-11       4.544203136126e-12      -1.424374277701e-14 
   91       1.402781606948e-09       3.023604099375e-13      -8.214874522967e-12       0.000000000000e+00       4.323149971112e-11       4.454461338821e-12      -1.417781988059e-14 
   92       1.428897169576e-09       3.129969722035e-13      -8.553800476208e-12       0.000000000000e+00       4.230688373480e-11       4.367156490097e-12      -1.411906700082e-14 
   93       1.455255403475e-09       3.238502301764e-13      -8.900256453302e-12       0.000000000000e+00       4.140653246099e-11       4.281952777643e-12      -1.407022075822e-14 
   94       1.481856471715e-09       3.349202159743e-13      -9.254254854658e-12       0.000000000000e+00       4.053029337503e-11       4.198827538678e-12      -1.403107752841e-14 
   95       1.508700670332e-09       3.462068736819e-13      -9.615806133232e-12       0.000000000000e+00       3.967849896928e-11       4.117824562895e-12      -1.400055050275e-14 
   96       1.535788144010e-09       3.577100319587e-13      -9.984917830016e-12       0.000000000000e+00       3.885124200893e-11       4.038966240448e-12      -1.397739441415e-14 
   97       1.563118878252e-09       3.694294021035e-13      -1.036159454582e-11       0.000000000000e+00       3.804836605190e-11       3.962252696528e-12      -1.396020065101e-14 
   98       1.590692691548e-09       3.813645761191e-13      -1.074583791303e-11       0.000000000000e+00       3.726945596881e-11       3.887660925930e-12      -1.394739237111e-14 
   99       1.618509227542e-09       3.935150247765e-13      -1.113764656741e-11       0.000000000000e+00       3.651382846290e-11       3.815143927629e-12      -1.393721961557e-14 
  100       1.646567947201e-09       4.058800956794e-13      -1.153701611986e-11       0.000000000000e+00       3.578052259002e-11       3.744629839346e-12      -1.392775442277e-14 
  101       1.674868120981e-09       4.184590113289e-13      -1.194393912819e-11       0.000000000000e+00       3.506829027848e-11       3.676021072124e-12      -1.391688594223e-14 
  102       1.703408820996e-09       4.312508671877e-13      -1.235840506892e-11       0.000000000000e+00       3.437558684910e-11       3.609193444896e-12      -1.390231554856e-14 
  103       1.732188913188e-09       4.442546297449e-13      -1.278040030903e-11       0.000000000000e+00       3.370056153505e-11       3.543995319057e-12      -1.388155195540e-14 
  104       1.761207332082e-09       4.574691767254e-13      -1.320990893964e-11       0.000000000000e+00       3.304150884683e-11       3.480286979664e-12      -1.385249119429e-14 
  105       1.790463964200e-09       4.708934280744e-13      -1.364691546622e-11       0.000000000000e+00       3.239831252635e-11       3.418066701677e-12      -1.381525630285e-14 
  106       1.819958869941e-09       4.845262291411e-13      -1.409140243085e-11       0.000000000000e+00       3.177117988447e-11       3.357360179302e-12      -1.377059819951e-14 
  107       1.849692006975e-09       4.983663086590e-13      -1.454334956427e-11       0.000000000000e+00       3.116019401181e-11       3.298181382036e-12      -1.371933453304e-14 
