# dimensionless total lensed [l(l+1)/2pi] C_l's
# for l=2 to 2500, i.e. number of multipoles equal to 2499
#
# -> if you prefer output in CAMB/HealPix/LensPix units/order, set 'format' to 'camb' in input file
# -> if you don't want to see such a header, set 'headers' to 'no' in input file
# -> for CMB lensing (phi), these are C_l^phi-phi for the lensing potential.
#    Remember the conversion factors:
#    C_l^dd (deflection) = l(l+1) C_l^phi-phi
#    C_l^gg (shear/convergence) = 1/4 (l(l+1))^2 C_l^phi-phi
#
# 1:l     2:TT                     3:EE                     4:TE                     5:BB                     6:phiphi                 7:TPhi                   8:Ephi               
    2       1.095082283477e-08       4.262283533369e-16      -6.226881219054e-13       2.041568599673e-19       7.467454689756e-09       4.747308178385e-09      -3.378800335840e-13 
    3       9.996336016422e-09       9.897305653475e-16       1.628966468952e-12       4.083865530351e-19       4.506253083396e-09       3.362708845476e-09       3.291870233930e-13 
    4       9.150614827143e-09       2.429671306600e-15       3.859339758128e-12       6.808057555563e-19       3.072076767636e-09       2.607281415281e-09       7.447572848121e-13 
    5       8.384564018791e-09       4.106808205193e-15       5.182648041949e-12       1.021510551435e-18       2.252785271313e-09       2.124438173551e-09       8.614486960558e-13 
    6       7.692852475013e-09       5.168299403812e-15       5.470942022276e-12       1.430620032834e-18       1.731424963343e-09       1.784627147738e-09       7.707633208365e-13 
    7       7.071636554432e-09       5.453898199772e-15       5.068732227155e-12       1.908275471225e-18       1.375927581179e-09       1.531265910991e-09       5.963391436823e-13 
    8       6.515973931047e-09       5.369066115667e-15       4.429960465301e-12       2.454639185421e-18       1.121255533515e-09       1.334687476065e-09       4.279449558048e-13 
    9       6.019934598137e-09       5.364321585557e-15       3.859193698456e-12       3.069893051675e-18       9.317595279121e-10       1.177568568609e-09       3.005252791885e-13 
   10       5.576336314001e-09       5.650228816032e-15       3.439598765462e-12       3.754236606820e-18       7.864790820940e-10       1.049113761128e-09       2.087523898663e-13 
   11       5.178805623919e-09       6.196149782703e-15       3.103413050949e-12       4.507884706544e-18       6.679470695309e-10       9.155235847723e-10       1.286899433823e-13 
   12       4.822873161435e-09       6.866975109197e-15       2.751782268001e-12       5.331064717051e-18       5.751879530863e-10       8.244089194154e-10       5.851659382620e-14 
   13       4.503687703139e-09       7.554570694627e-15       2.336635433365e-12       6.224013238877e-18       5.288402831350e-10       8.164463470967e-10       4.289606835020e-14 
   14       4.216255909877e-09       8.225034797174e-15       1.875002252316e-12       7.186972385717e-18       4.561001132434e-10       7.327139772110e-10      -3.331969689056e-14 
   15       3.956718514493e-09       8.921375015040e-15       1.418155742657e-12       8.220185667578e-18       3.958775711161e-10       6.565097512835e-10      -8.840873554625e-14 
   16       3.721432052396e-09       9.705910213239e-15       1.008151561656e-12       9.323893555100e-18       3.673572910259e-10       6.447849413519e-10      -1.124442747287e-13 
   17       3.507341498263e-09       1.062040339369e-14       6.528942002213e-13       1.049832882912e-17       3.184141805021e-10       5.688702928773e-10      -1.410563272159e-13 
   18       3.311771225025e-09       1.172561347131e-14       3.351816234609e-13       1.174371203066e-17       2.808330103968e-10       5.110904856160e-10      -1.643077531153e-13 
   19       3.134305333084e-09       1.304294987833e-14       3.698949087499e-14       1.306024586160e-17       2.578688227699e-10       4.812343246766e-10      -1.890118987057e-13 
   20       2.970884028022e-09       1.456169525634e-14      -2.628606768510e-13       1.444811262810e-17       2.335000754370e-10       4.414026439672e-10      -2.299715377598e-13 
   21       2.821046996136e-09       1.622397236380e-14      -5.632480665614e-13       1.590746825724e-17       2.100817411840e-10       4.013910994479e-10      -2.751677432560e-13 
   22       2.683161373751e-09       1.794870962366e-14      -8.556135598275e-13       1.743843997247e-17       1.947112846378e-10       3.832159430676e-10      -3.060612701761e-13 
   23       2.556498013293e-09       1.969761067846e-14      -1.129641538013e-12       1.904112342633e-17       1.827564962341e-10       3.729825302839e-10      -3.334197267049e-13 
   24       2.439124503481e-09       2.145765749132e-14      -1.376157458991e-12       2.071558031208e-17       1.665995757289e-10       3.478066318317e-10      -3.742711556001e-13 
   25       2.330487882143e-09       2.328281680318e-14      -1.595125862754e-12       2.246184029356e-17       1.499122926312e-10       3.185473572601e-10      -4.144597445496e-13 
   26       2.229478073390e-09       2.525994554860e-14      -1.791428453667e-12       2.427989721432e-17       1.390262901742e-10       3.041723677127e-10      -4.315694141704e-13 
   27       2.135693318065e-09       2.747377547418e-14      -1.971063192058e-12       2.616971437016e-17       1.314910543495e-10       2.973820530444e-10      -4.268551250774e-13 
   28       2.048328416934e-09       2.998272084868e-14      -2.141358940387e-12       2.813122325080e-17       1.224056927077e-10       2.836618459080e-10      -4.096213880896e-13 
   29       1.967343742340e-09       3.268494581590e-14      -2.306265078683e-12       3.016434458991e-17       1.118969605005e-10       2.634538537257e-10      -3.852251733832e-13 
   30       1.892166050520e-09       3.539647953215e-14      -2.469817006908e-12       3.226897101071e-17       1.019174767996e-10       2.427769837552e-10      -3.589063898618e-13 
   31       1.821606788376e-09       3.793150126445e-14      -2.635758349343e-12       3.444497256461e-17       9.434317667678e-11       2.275692697375e-10      -3.367266631248e-13 
   32       1.755612387945e-09       4.027504664102e-14      -2.800997416929e-12       3.669224358997e-17       8.891688843056e-11       2.173416899095e-10      -3.231422990958e-13 
   33       1.694037922604e-09       4.247594589738e-14      -2.959638095822e-12       3.901067244249e-17       8.450745784026e-11       2.090931879704e-10      -3.226136705683e-13 
   34       1.636356630314e-09       4.463161993787e-14      -3.107318901727e-12       4.140014545832e-17       7.994435965315e-11       1.997968605456e-10      -3.387311419633e-13 
   35       1.582449426394e-09       4.698401179224e-14      -3.250690573387e-12       4.386060356608e-17       7.517595362644e-11       1.896036178624e-10      -3.688762234856e-13 
   36       1.532010575195e-09       4.986362046416e-14      -3.401459893973e-12       4.639200711795e-17       7.050781418272e-11       1.797482159121e-10      -4.075619094346e-13 
   37       1.484508773301e-09       5.352850805226e-14      -3.568513809280e-12       4.899434318025e-17       6.623051096991e-11       1.714005352103e-10      -4.480845953840e-13 
   38       1.439910511332e-09       5.768321521139e-14      -3.738808064613e-12       5.166769705773e-17       6.237791520287e-11       1.645623574046e-10      -4.837613784716e-13 
   39       1.398144879084e-09       6.179527010315e-14      -3.889960850492e-12       5.441220864943e-17       5.888788022422e-11       1.588036469723e-10      -5.069418125038e-13 
   40       1.358879595892e-09       6.521446251936e-14      -3.995006198894e-12       5.722805728414e-17       5.566341998722e-11       1.535439464723e-10      -5.085700123624e-13 
   41       1.321676083390e-09       6.737023146028e-14      -4.028039791801e-12       6.011548136953e-17       5.259945021012e-11       1.481804233198e-10      -4.811324790423e-13 
   42       1.286572317991e-09       6.845883107017e-14      -3.984045065461e-12       6.307483749254e-17       4.968010935261e-11       1.425483481578e-10      -4.288529641061e-13 
   43       1.253649862454e-09       6.896745146461e-14      -3.865046280098e-12       6.610656583723e-17       4.690847823621e-11       1.365921693355e-10      -3.606782565761e-13 
   44       1.222860309057e-09       6.949534800773e-14      -3.674860719390e-12       6.921117952650e-17       4.427910025638e-11       1.302381785581e-10      -2.876586759450e-13 
   45       1.194075911832e-09       7.061794906942e-14      -3.422389481918e-12       7.238926291075e-17       4.178481620730e-11       1.234583788707e-10      -2.207130570232e-13 
   46       1.167286397045e-09       7.241493953937e-14      -3.132361570500e-12       7.564145571031e-17       3.944141710015e-11       1.164879533549e-10      -1.628294426637e-13 
   47       1.142441600197e-09       7.481249331746e-14      -2.838019478421e-12       7.896847143259e-17       3.726912598538e-11       1.096705765597e-10      -1.147474309446e-13 
   48       1.119386918416e-09       7.771214832736e-14      -2.578537222401e-12       8.237110680700e-17       3.528539325093e-11       1.034012541939e-10      -7.710749355617e-14 
   49       1.097855483372e-09       8.098929640545e-14      -2.399330426317e-12       8.585024573098e-17       3.350460571105e-11       9.812876342480e-11      -5.044122103371e-14 
   50       1.077552039491e-09       8.451344496771e-14      -2.339748593518e-12       8.940682814190e-17       3.193140806229e-11       9.421625648494e-11      -3.478248838506e-14 
   51       1.058449578462e-09       8.821898920163e-14      -2.391494056622e-12       9.304173751724e-17       3.053920503068e-11       9.147280315446e-11      -2.839915603452e-14 
   52       1.040559693220e-09       9.205103986618e-14      -2.529452320416e-12       9.675588965846e-17       2.928532101778e-11       8.949890898622e-11      -2.870024172433e-14 
   53       1.023844481756e-09       9.594485647148e-14      -2.723046441706e-12       1.005502673371e-16       2.811630024726e-11       8.781310442580e-11      -3.255797189619e-14 
   54       1.008213035577e-09       9.982536172195e-14      -2.935953333689e-12       1.044259225900e-16       2.696731525934e-11       8.584771044198e-11      -3.628018788403e-14 
   55       9.935581625837e-10       1.036218474509e-13      -3.134090489500e-12       1.083839244791e-16       2.577930410481e-11       8.309599919521e-11      -3.650265049066e-14 
   56       9.798852833390e-10       1.073174828807e-13      -3.312549484225e-12       1.124251819141e-16       2.455672237811e-11       7.960618697514e-11      -3.318874813522e-14 
   57       9.672094046609e-10       1.109112547865e-13      -3.474856417822e-12       1.165505808355e-16       2.332310196065e-11       7.560274288301e-11      -2.732664788694e-14 
   58       9.555157890018e-10       1.144039575660e-13      -3.625325398274e-12       1.207610350612e-16       2.210467636778e-11       7.134737355489e-11      -2.008275316152e-14 
   59       9.447580104836e-10       1.177982995589e-13      -3.769097070078e-12       1.250574864576e-16       2.093047997177e-11       6.714068730011e-11      -1.280995011060e-14 
   60       9.348560109317e-10       1.210990093664e-13      -3.912177142743e-12       1.294409051094e-16       1.983244722481e-11       6.332385823965e-11      -7.055854011264e-15 
   61       9.257224203463e-10       1.243095378688e-13      -4.060009102495e-12       1.339122601200e-16       1.883854664089e-11       6.019817947474e-11      -4.182921046799e-15 
   62       9.173528198667e-10       1.274210587073e-13      -4.212730813862e-12       1.384724239647e-16       1.795015734692e-11       5.775885701218e-11      -4.110485070880e-15 
   63       9.097523819025e-10       1.304211762721e-13      -4.368916735441e-12       1.431222468735e-16       1.715976741839e-11       5.590414413754e-11      -6.303705827146e-15 
   64       9.029083671068e-10       1.332971104752e-13      -4.526941962255e-12       1.478625835613e-16       1.645737165467e-11       5.451125714446e-11      -1.013279904098e-14 
   65       8.967890772201e-10       1.360356950542e-13      -4.684974244989e-12       1.526942924668e-16       1.583034980016e-11       5.343543415417e-11      -1.486896759136e-14 
   66       8.913428079146e-10       1.386233758758e-13      -4.840966009229e-12       1.576182349912e-16       1.526334476547e-11       5.250899393489e-11      -1.968033268279e-14 
   67       8.864968016379e-10       1.410462092393e-13      -4.992646374697e-12       1.626352747370e-16       1.473814084855e-11       5.154039472127e-11      -2.362786501714e-14 
   68       8.821772763364e-10       1.432912470946e-13      -5.137923620174e-12       1.677463172283e-16       1.423733979261e-11       5.035807741980e-11      -2.588274697164e-14 
   69       8.783765649678e-10       1.453510224218e-13      -5.276205115246e-12       1.729524401212e-16       1.375652612617e-11       4.895441508841e-11      -2.643869820243e-14 
   70       8.750977615716e-10       1.472199738362e-13      -5.407331733334e-12       1.782547881310e-16       1.329435939821e-11       4.736937464912e-11      -2.553733970979e-14 
   71       8.723343500652e-10       1.488931722571e-13      -5.531193541575e-12       1.836545351543e-16       1.284897023959e-11       4.564851380886e-11      -2.346109939442e-14 
   72       8.700696961127e-10       1.503663546832e-13      -5.647732317390e-12       1.891528845426e-16       1.241793571557e-11       4.384318525967e-11      -2.053480642647e-14 
   73       8.682765389942e-10       1.516359579664e-13      -5.756944065055e-12       1.947510693769e-16       1.199825467838e-11       4.201074087882e-11      -1.712728561444e-14 
   74       8.669164834745e-10       1.526991525864e-13      -5.858881532269e-12       2.004503527412e-16       1.158632311970e-11       4.021473592901e-11      -1.365295177419e-14 
   75       8.659394916726e-10       1.535538764255e-13      -5.953656726725e-12       2.062520279972e-16       1.117790952326e-11       3.852513325850e-11      -1.057340409790e-14 
   76       8.652958066416e-10       1.541987511165e-13      -6.041331742162e-12       2.121574297620e-16       1.076946952109e-11       3.700276531532e-11      -8.294360336526e-15 
   77       8.649753565746e-10       1.546327388173e-13      -6.121562689603e-12       2.181679685494e-16       1.036242111593e-11       3.564899764512e-11      -6.831236885784e-15 
   78       8.649746463587e-10       1.548554839179e-13      -6.193895105691e-12       2.242851029731e-16       9.959607908890e-12       3.444721463366e-11      -6.085198934712e-15 
   79       8.652847142096e-10       1.548674557737e-13      -6.257870105534e-12       2.305103300882e-16       9.564031728179e-12       3.337763069092e-11      -5.941867755455e-15 
   80       8.658908784625e-10       1.546699800721e-13      -6.313024608972e-12       2.368451858851e-16       9.178855445199e-12       3.241717164494e-11      -6.270768930340e-15 
   81       8.667724843642e-10       1.542652701984e-13      -6.358891566839e-12       2.432912457829e-16       8.807405790573e-12       3.153935613570e-11      -6.924780578947e-15 
   82       8.679026508638e-10       1.536564586033e-13      -6.395000187230e-12       2.498501251230e-16       8.453176170192e-12       3.071417700908e-11      -7.739581585180e-15 
   83       8.692480174040e-10       1.528476281688e-13      -6.420876161765e-12       2.565234796626e-16       8.119829481266e-12       2.990798271065e-11      -8.533099824339e-15 
   84       8.707756384864e-10       1.518439388679e-13      -6.436079627353e-12       2.633128530422e-16       7.810379989390e-12       2.909078804996e-11      -9.144465368763e-15 
   85       8.724755352621e-10       1.506519631614e-13      -6.440325786679e-12       2.702191890530e-16       7.524576958347e-12       2.825985882342e-11      -9.559498408439e-15 
   86       8.743414356538e-10       1.492794639705e-13      -6.433384791858e-12       2.772432390430e-16       7.261090427964e-12       2.741983774264e-11      -9.805109645696e-15 
   87       8.763638278682e-10       1.477353368090e-13      -6.415046634625e-12       2.843857057059e-16       7.018282769373e-12       2.657566885767e-11      -9.911755484923e-15 
   88       8.785298273181e-10       1.460296427525e-13      -6.385122006814e-12       2.916472410033e-16       6.794197703760e-12       2.573260381427e-11      -9.913550208856e-15 
   89       8.808230435438e-10       1.441736414054e-13      -6.343443160828e-12       2.990284440864e-16       6.586549321122e-12       2.489620811117e-11      -9.848378154873e-15 
   90       8.832234471359e-10       1.421798238698e-13      -6.289864770115e-12       3.065298592172e-16       6.392711099013e-12       2.407236735734e-11      -9.758005891284e-15 
   91       8.857072366566e-10       1.400619457132e-13      -6.224264789647e-12       3.141519736908e-16       6.209704921303e-12       2.326729352919e-11      -9.688194393620e-15 
   92       8.882467055622e-10       1.378350599370e-13      -6.146545316389e-12       3.218952157567e-16       6.034190096925e-12       2.248753122788e-11      -9.688811220928e-15 
   93       8.908154358038e-10       1.355151441620e-13      -6.056622388235e-12       3.297598298041e-16       5.863149795537e-12       2.173880203886e-11      -9.801379475063e-15 
   94       8.934050612047e-10       1.331178464382e-13      -5.954391756797e-12       3.377454849576e-16       5.696092302696e-12       2.102232519965e-11      -1.001933891233e-14 
   95       8.960107909797e-10       1.306596108823e-13      -5.839759533819e-12       3.458516034979e-16       5.533162070874e-12       2.033795255439e-11      -1.032198769285e-14 
   96       8.986262485451e-10       1.281580936826e-13      -5.712653493181e-12       3.540774746402e-16       5.374470412388e-12       1.968527158297e-11      -1.068645358992e-14 
   97       9.012434115588e-10       1.256321904979e-13      -5.573023779535e-12       3.624222507715e-16       5.220094091479e-12       1.906359570914e-11      -1.108763371302e-14 
   98       9.038525519611e-10       1.231020638547e-13      -5.420843616936e-12       3.708849436873e-16       5.070073916395e-12       1.847195460853e-11      -1.149813423093e-14 
   99       9.064421760149e-10       1.205891705459e-13      -5.256110017483e-12       3.794644208286e-16       4.924413331470e-12       1.790908451676e-11      -1.188821009478e-14 
  100       9.089989643462e-10       1.181162890284e-13      -5.078844489949e-12       3.881594015187e-16       4.783077009200e-12       1.737341853750e-11      -1.222570476116e-14 
  101       9.115077119846e-10       1.157075468211e-13      -4.889093748417e-12       3.969684532003e-16       4.645989442328e-12       1.686307695055e-11      -1.247598991512e-14 
  102       9.139512684037e-10       1.133884479034e-13      -4.686930420917e-12       4.058899876723e-16       4.513033535920e-12       1.637585751993e-11      -1.260190519332e-14 
  103       9.163104775614e-10       1.111859001125e-13      -4.472453758056e-12       4.149222573268e-16       4.384049199446e-12       1.590922580190e-11      -1.256369790705e-14 
  104       9.185673415709e-10       1.091272296521e-13      -4.245782641718e-12       4.240635067094e-16       4.258880756770e-12       1.546079750313e-11      -1.232933125547e-14 
  105       9.207151275749e-10       1.072370139919e-13      -4.007032009269e-12       4.333124586236e-16       4.137529502396e-12       1.502988063882e-11      -1.190712467138e-14 
  106       9.227495207367e-10       1.055398702247e-13      -3.756334550872e-12       4.426678869820e-16       4.020019224516e-12       1.461612459891e-11      -1.131743086323e-14 
  107       9.246654982894e-10       1.040614458231e-13      -3.493848741534e-12       4.521284653159e-16       3.906348366434e-12       1.421904246793e-11      -1.058271407865e-14 
