# dimensionless total lensed [l(l+1)/2pi] C_l's
# for l=2 to 2500, i.e. number of multipoles equal to 2499
#
# -> if you prefer output in CAMB/HealPix/LensPix units/order, set 'format' to 'camb' in input file
# -> if you don't want to see such a header, set 'headers' to 'no' in input file
# -> for CMB lensing (phi), these are C_l^phi-phi for the lensing potential.
#    Remember the conversion factors:
#    C_l^dd (deflection) = l(l+1) C_l^phi-phi
#    C_l^gg (shear/convergence) = 1/4 (l(l+1))^2 C_l^phi-phi
#
# 1:l     2:TT                     3:EE                     4:TE                     5:BB                     6:phiphi                 7:TPhi                   8:Ephi               
    2       1.353689053293e-10       8.250782254953e-16       1.541000559216e-13       1.528273765630e-19       7.222263780059e-09       4.085668397669e-10      -8.070570506288e-13 
    3       1.293912603223e-10       1.069621208302e-15       1.733683281291e-13       3.057102271499e-19       4.379308166688e-09       2.839225408688e-10      -6.080707028945e-13 
    4       1.237576529639e-10       9.412240191710e-16       1.636229554095e-13       5.096395755065e-19       2.996794117759e-09       2.115390232026e-10      -3.945825190554e-13 
    5       1.196628856263e-10       6.495080070531e-16       1.432297909130e-13       7.646873332443e-19       2.205605679568e-09       1.648968839320e-10      -2.147042275451e-13 
    6       1.169558597738e-10       3.916583333545e-16       1.219012324918e-13       1.070941670104e-18       1.700466085216e-09       1.326771749034e-10      -8.163352432603e-14 
    7       1.153156078157e-10       2.455782443989e-16       1.045520178477e-13       1.428505941359e-18       1.354957221614e-09       1.093596227713e-10       3.807067974065e-15 
    8       1.145302881642e-10       1.896858473821e-16       9.274443801326e-14       1.837497471045e-18       1.107150745825e-09       9.189309395633e-11       4.783378276797e-14 
    9       1.143319444519e-10       1.721712115798e-16       8.634438080032e-14       2.298046225011e-18       9.228223957311e-10       7.842695875693e-11       6.031250765898e-14 
   10       1.146314201698e-10       1.595570454196e-16       8.448348034268e-14       2.810293410055e-18       7.815032756391e-10       6.780058909296e-11       5.233363721854e-14 
   11       1.153197212088e-10       1.459935622597e-16       8.607054303815e-14       3.374390036366e-18       6.590231372302e-10       5.982753215932e-11       3.440797899663e-14 
   12       1.162602106824e-10       1.392220655619e-16       9.013297860385e-14       3.990495480112e-18       5.712953976886e-10       5.266908107220e-11       1.450336448781e-14 
   13       1.174941990169e-10       1.457094322514e-16       9.591069226308e-14       4.658776081332e-18       4.997347379410e-10       4.671592261240e-11      -1.860825126294e-15 
   14       1.189317235590e-10       1.658617369765e-16       1.027771824549e-13       5.379403809392e-18       4.405729739117e-10       4.183194362568e-11      -1.198016407486e-14 
   15       1.205289856484e-10       1.970907838364e-16       1.103600158934e-13       6.152555024271e-18       3.910842863924e-10       3.759776299496e-11      -1.590525017642e-14 
   16       1.222938778709e-10       2.377578577649e-16       1.184203749250e-13       6.978409357006e-18       3.492533160229e-10       3.395497322713e-11      -1.492448863568e-14 
   17       1.241757804876e-10       2.882793168752e-16       1.267779301739e-13       7.857148727014e-18       3.135747349154e-10       3.082299762989e-11      -1.109878967407e-14 
   18       1.261806234769e-10       3.498588693046e-16       1.353983446359e-13       8.788956450944e-18       2.827813652493e-10       2.809965690737e-11      -6.669130555669e-15 
   19       1.283178380214e-10       4.229869836947e-16       1.442205246048e-13       9.774016846776e-18       2.563310331425e-10       2.575131914063e-11      -3.016021835409e-15 
   20       1.305346384208e-10       5.077051768230e-16       1.531358122869e-13       1.081251407271e-17       2.331585801433e-10       2.369774102331e-11      -1.244013643089e-15 
   21       1.328420141214e-10       6.044077325797e-16       1.620951779079e-13       1.190463263344e-17       2.128675767201e-10       2.188388771652e-11      -1.369122751957e-15 
   22       1.352380845884e-10       7.135993235694e-16       1.710393069094e-13       1.305055612576e-17       1.949412568423e-10       2.023778115087e-11      -2.866573590122e-15 
   23       1.377157830265e-10       8.361914953987e-16       1.798220754190e-13       1.425046820433e-17       1.791110481607e-10       1.876257396669e-11      -5.038287352833e-15 
   24       1.402479519340e-10       9.732008277784e-16       1.882614327768e-13       1.550455129905e-17       1.649890625327e-10       1.746547971563e-11      -7.046337374758e-15 
   25       1.428503225626e-10       1.125408970641e-15       1.962691784966e-13       1.681298808373e-17       1.523934840813e-10       1.632808158326e-11      -8.389302572372e-15 
   26       1.455331075778e-10       1.293526949975e-15       2.037791974520e-13       1.817595999618e-17       1.410809783587e-10       1.530886023174e-11      -8.740616970898e-15 
   27       1.482826584519e-10       1.478416230978e-15       2.107027473086e-13       1.959364860858e-17       1.309050443779e-10       1.437351965870e-11      -8.308287627118e-15 
   28       1.510699125709e-10       1.680981034422e-15       2.169486777822e-13       2.106623450062e-17       1.216796243182e-10       1.348702758705e-11      -7.502808341967e-15 
   29       1.539032518818e-10       1.902095938880e-15       2.224722848662e-13       2.259389956823e-17       1.133503133936e-10       1.265614085126e-11      -6.575634081627e-15 
   30       1.567919977205e-10       2.142620898941e-15       2.272489074694e-13       2.417682451837e-17       1.058198633014e-10       1.189730210592e-11      -5.776668765575e-15 
   31       1.597346730206e-10       2.403413420354e-15       2.312565348969e-13       2.581518850491e-17       9.892524165162e-11       1.122037769172e-11      -5.352320775664e-15 
   32       1.627333353148e-10       2.685351842085e-15       2.344524760751e-13       2.750917197156e-17       9.262614196742e-11       1.061905739080e-11      -5.303014964004e-15 
   33       1.657818262330e-10       2.989318207503e-15       2.367880190644e-13       2.925895430563e-17       8.687405448905e-11       1.007539559094e-11      -5.532477140621e-15 
   34       1.688668072629e-10       3.316197572304e-15       2.382138248053e-13       3.106471308387e-17       8.158361616230e-11       9.567588522179e-12      -5.917140045283e-15 
   35       1.719895880728e-10       3.666901193128e-15       2.386781547049e-13       3.292662510352e-17       7.672442140055e-11       9.091600204296e-12      -6.340373083836e-15 
   36       1.751501420604e-10       4.042350027040e-15       2.381277556536e-13       3.484486522197e-17       7.225398343893e-11       8.646329579768e-12      -6.666315149960e-15 
   37       1.783437111740e-10       4.443426148709e-15       2.365119675135e-13       3.681960554390e-17       6.811007464598e-11       8.228943025702e-12      -6.768574627798e-15 
   38       1.815719467372e-10       4.870829244726e-15       2.337957995934e-13       3.885101452148e-17       6.427992341789e-11       7.839422923770e-12      -6.666695667266e-15 
   39       1.848342448647e-10       5.325167667096e-15       2.299512454673e-13       4.093925706066e-17       6.074961185444e-11       7.477142942497e-12      -6.435045256951e-15 
   40       1.881239795064e-10       5.806991483205e-15       2.249539791767e-13       4.308449437869e-17       5.748309827319e-11       7.139415013197e-12      -6.167977768216e-15 
   41       1.914325530315e-10       6.316842780633e-15       2.187808877314e-13       4.528688307448e-17       5.443433346995e-11       6.822562256988e-12      -5.959908241225e-15 
   42       1.947646070156e-10       6.855436342654e-15       2.114013336162e-13       4.754657269987e-17       5.159295801149e-11       6.525999875424e-12      -5.834546061799e-15 
   43       1.981267316129e-10       7.423530740875e-15       2.027833062508e-13       4.986370689072e-17       4.895025681457e-11       6.249173223756e-12      -5.794854182513e-15 
   44       2.015229426306e-10       8.021878486480e-15       1.928957712378e-13       5.223842358899e-17       4.648547773280e-11       5.990319955417e-12      -5.842178493329e-15 
   45       2.049547314226e-10       8.651195059749e-15       1.817083817479e-13       5.467085470089e-17       4.417294860712e-11       5.747113765390e-12      -5.973012220718e-15 
   46       2.084219227458e-10       9.312056016554e-15       1.691905739761e-13       5.716112576530e-17       4.200820590736e-11       5.519054906063e-12      -6.168466784841e-15 
   47       2.119215750124e-10       1.000496835625e-14       1.553121549248e-13       5.970935559743e-17       3.998806042504e-11       5.305628469644e-12      -6.401414089150e-15 
   48       2.154473935552e-10       1.073039622229e-14       1.400434991035e-13       6.231565593894e-17       3.810273431285e-11       5.105571777975e-12      -6.638997799757e-15 
   49       2.189894574013e-10       1.148875869502e-14       1.233555062355e-13       6.498013111205e-17       3.633537505814e-11       4.916819560186e-12      -6.842314563009e-15 
   50       2.225379007728e-10       1.228044064061e-14       1.052204348630e-13       6.770287976048e-17       3.466698339134e-11       4.737126824298e-12      -6.976928338024e-15 
   51       2.260957695513e-10       1.310583384989e-14       8.561476803863e-14       7.048400143172e-17       3.309390152329e-11       4.566263978755e-12      -7.048517555939e-15 
   52       2.296691822676e-10       1.396530325094e-14       6.451705238604e-14       7.332359118355e-17       3.161423176566e-11       4.404322788042e-12      -7.076352944115e-15 
   53       2.332635953266e-10       1.485917327403e-14       4.190708913635e-14       7.622173741156e-17       3.022261171919e-11       4.251068368829e-12      -7.083496581908e-15 
   54       2.368837158864e-10       1.578772625884e-14       1.776593305320e-14       7.917852160142e-17       2.890998302062e-11       4.105916259105e-12      -7.096992911888e-15 
   55       2.405329745183e-10       1.675122458669e-14      -7.923879257916e-15       8.219402325900e-17       2.766626081474e-11       3.968128280694e-12      -7.141257134498e-15 
   56       2.442119893643e-10       1.774998716477e-14      -3.517757554114e-14       8.526833670208e-17       2.648964852398e-11       3.837509637482e-12      -7.215879426582e-15 
   57       2.479195678438e-10       1.878432915231e-14      -6.400871631970e-14       8.840155800623e-17       2.537923200968e-11       3.713844826152e-12      -7.312641385388e-15 
   58       2.516530114412e-10       1.985453924649e-14      -9.442940018275e-14       9.159378014752e-17       2.433216592023e-11       3.596679922391e-12      -7.421763135443e-15 
   59       2.554080114336e-10       2.096087901392e-14      -1.264502559235e-13       9.484509295656e-17       2.334355545323e-11       3.485308174450e-12      -7.531829302758e-15 
   60       2.591785446178e-10       2.210358222227e-14      -1.600804346772e-13       9.815558307258e-17       2.240633811777e-11       3.378755596697e-12      -7.629714989041e-15 
   61       2.629587890772e-10       2.328280738290e-14      -1.953266585703e-13       1.015253403992e-16       2.151319273819e-11       3.276050268166e-12      -7.703582825517e-15 
   62       2.667496098720e-10       2.449848444302e-14      -2.321901349197e-13       1.049544792691e-16       2.066303467683e-11       3.177133455510e-12      -7.752827715053e-15 
   63       2.705533507235e-10       2.575043233921e-14      -2.706689322892e-13       1.084431219701e-16       1.985577535363e-11       3.082128367607e-12      -7.780243092787e-15 
   64       2.743719030533e-10       2.703840063949e-14      -3.107588258084e-13       1.119913928197e-16       1.909037080734e-11       2.991069199395e-12      -7.789169773873e-15 
   65       2.782066658049e-10       2.836206739026e-14      -3.524532593753e-13       1.155994183254e-16       1.836476778054e-11       2.903895727172e-12      -7.783519370725e-15 
   66       2.820585052657e-10       2.972103696336e-14      -3.957433078575e-13       1.192673273451e-16       1.767584980466e-11       2.820447903899e-12      -7.767797710263e-15 
   67       2.859277148884e-10       3.111483790304e-14      -4.406176392945e-13       1.229952512475e-16       1.701938328509e-11       2.740460454496e-12      -7.747128251155e-15 
   68       2.898143636765e-10       3.254298579230e-14      -4.870647466552e-13       1.267833258125e-16       1.639111931983e-11       2.663647600496e-12      -7.726184370234e-15 
   69       2.937195131222e-10       3.400519145650e-14      -5.350802527202e-13       1.306316970229e-16       1.579047892294e-11       2.589989250271e-12      -7.705682650608e-15 
   70       2.976441758072e-10       3.550119127339e-14      -5.846610242600e-13       1.345405167399e-16       1.521752110014e-11       2.519493355688e-12      -7.685217844437e-15 
   71       3.015889189581e-10       3.703068540517e-14      -6.358030533260e-13       1.385099412676e-16       1.467182926503e-11       2.452107869632e-12      -7.664286725989e-15 
   72       3.055538342059e-10       3.859333730842e-14      -6.885014774984e-13       1.425401315576e-16       1.415248688256e-11       2.387717646406e-12      -7.642283602719e-15 
   73       3.095385073453e-10       4.018877324399e-14      -7.427506001319e-13       1.466312534144e-16       1.365805311248e-11       2.326141342132e-12      -7.618495826355e-15 
   74       3.135419880940e-10       4.181658178689e-14      -7.985439106032e-13       1.507834776998e-16       1.318653845276e-11       2.267128315150e-12      -7.592099303983e-15 
   75       3.175627598523e-10       4.347631333620e-14      -8.558741045577e-13       1.549969805380e-16       1.273538038308e-11       2.210355526417e-12      -7.562154009132e-15 
   76       3.215993231171e-10       4.516745625070e-14      -9.147312996360e-13       1.592719411205e-16       1.230206433215e-11       2.155507148925e-12      -7.527800347987e-15 
   77       3.256521353963e-10       4.688936131500e-14      -9.750972622624e-13       1.636085342073e-16       1.188617115045e-11       2.102537007583e-12      -7.488899521166e-15 
   78       3.297219717498e-10       4.864130254508e-14      -1.036950159977e-12       1.680069366242e-16       1.148766048778e-11       2.051448587512e-12      -7.445502322077e-15 
   79       3.338093251458e-10       5.042249838681e-14      -1.100266256074e-12       1.724673296940e-16       1.110624764843e-11       2.002215189743e-12      -7.397658276955e-15 
   80       3.379143888035e-10       5.223211074662e-14      -1.165019892845e-12       1.769898993928e-16       1.074139246760e-11       1.954778527638e-12      -7.345415274645e-15 
   81       3.420370385362e-10       5.406924402201e-14      -1.231183474826e-12       1.815748365047e-16       1.039228818769e-11       1.909047323299e-12      -7.288819196382e-15 
   82       3.461768150943e-10       5.593294413221e-14      -1.298727452035e-12       1.862223367784e-16       1.005785033465e-11       1.864895903986e-12      -7.227913545573e-15 
   83       3.503329065075e-10       5.782219754872e-14      -1.367620303221e-12       1.909326010822e-16       9.736705594341e-12       1.822162798534e-12      -7.162739077579e-15 
   84       3.545045339174e-10       5.973596523645e-14      -1.437829936638e-12       1.957058393479e-16       9.427516982057e-12       1.780693134669e-12      -7.093490405623e-15 
   85       3.586922212410e-10       6.167329306554e-14      -1.509328195895e-12       2.005422828131e-16       9.130045654282e-12       1.740476981173e-12      -7.021016459178e-15 
   86       3.628967045956e-10       6.363321801120e-14      -1.582087073835e-12       2.054421741028e-16       8.844245546590e-12       1.701531473151e-12      -6.946402697949e-15 
   87       3.671185368084e-10       6.561473449357e-14      -1.656077368374e-12       2.104057638386e-16       8.569937340142e-12       1.663858392640e-12      -6.870823746920e-15 
   88       3.713580765410e-10       6.761679399510e-14      -1.731268689573e-12       2.154333108573e-16       8.306802990014e-12       1.627443501172e-12      -6.795545664393e-15 
   89       3.756154774132e-10       6.963830467780e-14      -1.807629466704e-12       2.205250824306e-16       8.054380253527e-12       1.592255872341e-12      -6.721928210020e-15 
   90       3.798906771277e-10       7.167813100062e-14      -1.885126955321e-12       2.256813544843e-16       7.812057218574e-12       1.558247224366e-12      -6.651427112839e-15 
   91       3.841833865940e-10       7.373509333673e-14      -1.963727244321e-12       2.309024118176e-16       7.579066831948e-12       1.525351252657e-12      -6.585596339312e-15 
   92       3.884930790525e-10       7.580796759085e-14      -2.043395263019e-12       2.361885483223e-16       7.354481427673e-12       1.493482962380e-12      -6.526090361360e-15 
   93       3.928192492085e-10       7.789550218613e-14      -2.124094533437e-12       2.415400738711e-16       7.137427749009e-12       1.462559682133e-12      -6.474237515884e-15 
   94       3.971622588397e-10       7.999647277822e-14      -2.205786369215e-12       2.469573356901e-16       6.927780892212e-12       1.432569169938e-12      -6.429681756562e-15 
   95       4.015225988514e-10       8.210963510096e-14      -2.288430568726e-12       2.524407006214e-16       6.725565101028e-12       1.403510564038e-12      -6.391539864264e-15 
   96       4.059006235255e-10       8.423370818773e-14      -2.371985662636e-12       2.579905490468e-16       6.530740160288e-12       1.375373249599e-12      -6.358808582750e-15 
   97       4.102965433511e-10       8.636737422722e-14      -2.456408917472e-12       2.636072751990e-16       6.343198950917e-12       1.348136488891e-12      -6.330360999145e-15 
   98       4.147104178550e-10       8.850927841918e-14      -2.541656339198e-12       2.692912874726e-16       6.162765004944e-12       1.321769051464e-12      -6.304942924417e-15 
   99       4.191421484323e-10       9.065802883016e-14      -2.627682676780e-12       2.750430087347e-16       5.989190060511e-12       1.296228844325e-12      -6.281169273857e-15 
  100       4.235914711771e-10       9.281219624926e-14      -2.714441425760e-12       2.808628766357e-16       5.822151616881e-12       1.271462542119e-12      -6.257520447561e-15 
  101       4.280579497126e-10       9.497031404390e-14      -2.801884831824e-12       2.867513439203e-16       5.661250489449e-12       1.247405217304e-12      -6.232338710903e-15 
  102       4.325409680222e-10       9.713087801554e-14      -2.889963894374e-12       2.927088787385e-16       5.506008364749e-12       1.223979970329e-12      -6.203824575019e-15 
  103       4.370397232799e-10       9.929234625547e-14      -2.978628370100e-12       2.987359649561e-16       5.355865355464e-12       1.201097559814e-12      -6.170033177281e-15 
  104       4.415534785894e-10       1.014531735674e-13      -3.067827480473e-12       3.048330926592e-16       5.210304281972e-12       1.178677731154e-12      -6.129334215552e-15 
  105       4.460823755274e-10       1.036119203417e-13      -3.157512135396e-12       3.110007275374e-16       5.069247903350e-12       1.156717280210e-12      -6.081870305938e-15 
  106       4.506267185082e-10       1.057671581881e-13      -3.247633017991e-12       3.172393379250e-16       4.932711038132e-12       1.135230537379e-12      -6.028289797193e-15 
  107       4.551867204153e-10       1.079174369148e-13      -3.338139918668e-12       3.235494044386e-16       4.800677589845e-12       1.114228360422e-12      -5.969302265714e-15 
