# dimensionless total [l(l+1)/2pi] C_l's
# for l=2 to 3000, i.e. number of multipoles equal to 2999
#
# -> if you prefer output in CAMB/HealPix/LensPix units/order, set 'format' to 'camb' in input file
# -> if you don't want to see such a header, set 'headers' to 'no' in input file
# -> for CMB lensing (phi), these are C_l^phi-phi for the lensing potential.
#    Remember the conversion factors:
#    C_l^dd (deflection) = l(l+1) C_l^phi-phi
#    C_l^gg (shear/convergence) = 1/4 (l(l+1))^2 C_l^phi-phi
#
# 1:l     2:TT                     3:EE                     4:TE                     5:BB                     6:phiphi                 7:TPhi                   8:Ephi               
    2       2.854285676954e-08       7.962779935112e-16       2.267602165503e-12       0.000000000000e+00       5.009909140524e-09       8.168299393965e-09       4.921914309206e-13 
    3       2.477273824508e-08       3.544747558709e-15       7.910406424358e-12       0.000000000000e+00       2.795134132039e-09       5.665909470098e-09       1.495498704100e-12 
    4       2.144417183350e-08       7.724225794490e-15       1.185413897519e-11       0.000000000000e+00       1.790595345738e-09       4.246893187375e-09       1.896092887230e-12 
    5       1.853487129483e-08       1.066820105711e-14       1.290551058418e-11       0.000000000000e+00       1.242284847668e-09       3.319104832351e-09       1.789397701708e-12 
    6       1.602894128353e-08       1.118318148969e-14       1.180260131154e-11       0.000000000000e+00       9.070902066631e-10       2.662888623777e-09       1.440177344059e-12 
    7       1.389291844738e-08       1.014985873432e-14       9.892666091941e-12       0.000000000000e+00       6.870104494690e-10       2.177503210062e-09       1.073577366324e-12 
    8       1.208210507856e-08       8.975020853684e-15       8.154016007678e-12       0.000000000000e+00       5.349644807716e-10       1.807404671688e-09       7.931683073848e-13 
    9       1.054966983761e-08       8.402126346131e-15       6.893819467039e-12       0.000000000000e+00       4.257898457488e-10       1.518765667656e-09       6.027712479857e-13 
   10       9.253419296113e-09       8.393808108437e-15       5.967470892883e-12       0.000000000000e+00       3.449766673679e-10       1.289633917910e-09       4.666116597831e-13 
   11       8.156579919668e-09       8.556145468624e-15       5.138794383444e-12       0.000000000000e+00       3.013526879847e-10       1.104035498134e-09       4.143974293806e-13 
   12       7.226212914772e-09       8.565830271095e-15       4.297062761417e-12       0.000000000000e+00       2.511028095556e-10       9.621770561650e-10       3.227530680739e-13 
   13       6.434141753503e-09       8.356930626789e-15       3.473323539061e-12       0.000000000000e+00       2.114456075880e-10       8.499947413843e-10       2.424991835173e-13 
   14       5.757250158256e-09       8.066260143476e-15       2.745442548153e-12       0.000000000000e+00       1.831625505195e-10       7.610381108276e-10       1.792251595154e-13 
   15       5.176258294149e-09       7.872965262105e-15       2.149261979527e-12       0.000000000000e+00       1.626552897022e-10       6.806481206886e-10       1.280737157076e-13 
   16       4.675465762545e-09       7.872121719219e-15       1.662044607986e-12       0.000000000000e+00       1.366807889481e-10       5.810951859422e-10       7.061826189545e-14 
   17       4.242323326396e-09       8.047310096424e-15       1.236146979042e-12       0.000000000000e+00       1.157304487732e-10       5.113600491655e-10       3.087704773375e-14 
   18       3.864856569244e-09       8.283057014107e-15       8.371811553961e-13       0.000000000000e+00       1.003418532031e-10       4.506077899336e-10      -1.050931370509e-14 
   19       3.538315133097e-09       8.489145768523e-15       4.672343178884e-13       0.000000000000e+00       8.834648881116e-11       3.946994873755e-10      -5.518530957157e-14 
   20       3.251624142613e-09       8.598393750951e-15       1.351511280084e-13       0.000000000000e+00       7.800309334768e-11       3.523351985746e-10      -9.316571786422e-14 
   21       3.000556140291e-09       8.690814038967e-15      -1.488301393456e-13       0.000000000000e+00       6.916999544547e-11       3.214832977464e-10      -1.209040703491e-13 
   22       2.778919320591e-09       8.902502663979e-15      -3.796279603284e-13       0.000000000000e+00       6.201260469601e-11       2.956721439019e-10      -1.375455926666e-13 
   23       2.583889892449e-09       9.299971414693e-15      -5.696554973993e-13       0.000000000000e+00       5.613157929760e-11       2.728984295683e-10      -1.438038879747e-13 
   24       2.411162783686e-09       9.906164437633e-15      -7.399659682481e-13       0.000000000000e+00       5.082674637569e-11       2.520750472035e-10      -1.419172115344e-13 
   25       2.258553657366e-09       1.063855164698e-14      -9.000053924301e-13       0.000000000000e+00       4.574338206159e-11       2.318877321861e-10      -1.360210307033e-13 
   26       2.122885548792e-09       1.135527520867e-14      -1.055590406177e-12       0.000000000000e+00       4.069234111619e-11       2.110882180014e-10      -1.312291641119e-13 
   27       2.002204080120e-09       1.189452065398e-14      -1.203749684517e-12       0.000000000000e+00       3.612186000935e-11       1.907745200315e-10      -1.303822027292e-13 
   28       1.894034308539e-09       1.213411095413e-14      -1.339761281846e-12       0.000000000000e+00       3.258641876636e-11       1.726336795734e-10      -1.355261633796e-13 
   29       1.797730279730e-09       1.225855792934e-14      -1.464705186718e-12       0.000000000000e+00       2.994091429675e-11       1.569948590400e-10      -1.472025744181e-13 
   30       1.712130740112e-09       1.260531815439e-14      -1.582596642004e-12       0.000000000000e+00       2.771214579205e-11       1.436050723132e-10      -1.653124579135e-13 
   31       1.635194134061e-09       1.348946658069e-14      -1.698349482677e-12       0.000000000000e+00       2.540594015549e-11       1.320700949962e-10      -1.887234480409e-13 
   32       1.566325426273e-09       1.480375039358e-14      -1.814620225710e-12       0.000000000000e+00       2.306207166045e-11       1.223031357532e-10      -2.126600623389e-13 
   33       1.504745596948e-09       1.626291739517e-14      -1.933913232071e-12       0.000000000000e+00       2.090558200188e-11       1.142172555505e-10      -2.301692704310e-13 
   34       1.449191290019e-09       1.755144007050e-14      -2.053917694149e-12       0.000000000000e+00       1.913984766374e-11       1.075599989418e-10      -2.345355654835e-13 
   35       1.399262621929e-09       1.849926179698e-14      -2.148301024064e-12       0.000000000000e+00       1.771580962682e-11       1.017863290208e-10      -2.257287985931e-13 
   36       1.354449742524e-09       1.896352278976e-14      -2.178595518116e-12       0.000000000000e+00       1.647850725295e-11       9.611525814622e-11      -2.062504336133e-13 
   37       1.313994391103e-09       1.884784578984e-14      -2.111107342296e-12       0.000000000000e+00       1.526905413512e-11       8.979904196056e-11      -1.792524284455e-13 
   38       1.277795001776e-09       1.833114257116e-14      -1.959269872693e-12       0.000000000000e+00       1.407874466980e-11       8.298756827589e-11      -1.476739356062e-13 
   39       1.245745550385e-09       1.771879208424e-14      -1.755613176974e-12       0.000000000000e+00       1.294382357583e-11       7.614591448129e-11      -1.149113799019e-13 
   40       1.217461717420e-09       1.738720133932e-14      -1.541138537938e-12       0.000000000000e+00       1.190438620110e-11       6.982968815719e-11      -8.510935125327e-14 
   41       1.192397619407e-09       1.768325386444e-14      -1.357190106479e-12       0.000000000000e+00       1.099448646374e-11       6.454811274542e-11      -6.212231862134e-14 
   42       1.170300950140e-09       1.857243791431e-14      -1.216550969954e-12       0.000000000000e+00       1.020829622079e-11       6.028708086381e-11      -4.588193207275e-14 
   43       1.150864521872e-09       1.988376868226e-14      -1.123873662694e-12       0.000000000000e+00       9.523133768763e-12       5.683966054638e-11      -3.492510752987e-14 
   44       1.133583022960e-09       2.140230639591e-14      -1.083512071279e-12       0.000000000000e+00       8.907969594804e-12       5.393040110477e-11      -2.734882386164e-14 
   45       1.117902048156e-09       2.291892473171e-14      -1.097570713420e-12       0.000000000000e+00       8.331170800383e-12       5.127309438601e-11      -2.124845945414e-14 
   46       1.103753469093e-09       2.440375270702e-14      -1.159458443499e-12       0.000000000000e+00       7.787832890547e-12       4.877535929938e-11      -1.625580638733e-14 
   47       1.091154745889e-09       2.587996963538e-14      -1.258334427075e-12       0.000000000000e+00       7.279653577899e-12       4.638749006332e-11      -1.241268936180e-14 
   48       1.080053544182e-09       2.737612614547e-14      -1.380699666029e-12       0.000000000000e+00       6.807243519244e-12       4.404452939930e-11      -9.742821267929e-15 
   49       1.070322261028e-09       2.892645335011e-14      -1.510244137995e-12       0.000000000000e+00       6.370037399947e-12       4.166531252645e-11      -8.250358925467e-15 
   50       1.061802213598e-09       3.056220647149e-14      -1.631670418778e-12       0.000000000000e+00       5.966577468053e-12       3.918310643292e-11      -7.883320302228e-15 
   51       1.054463045549e-09       3.228220840515e-14      -1.743742745310e-12       0.000000000000e+00       5.595661151798e-12       3.664955018869e-11      -8.415480364329e-15 
   52       1.048277127395e-09       3.407484495693e-14      -1.849515744456e-12       0.000000000000e+00       5.255351253777e-12       3.415727554197e-11      -9.529920696872e-15 
   53       1.043170612862e-09       3.592622149972e-14      -1.952700980275e-12       0.000000000000e+00       4.942561032237e-12       3.181129575419e-11      -1.084834178416e-14 
   54       1.039020301858e-09       3.782005023440e-14      -2.057701222056e-12       0.000000000000e+00       4.652982812495e-12       2.972953643119e-11      -1.192796517182e-14 
   55       1.035689626936e-09       3.974092101466e-14      -2.168586776313e-12       0.000000000000e+00       4.382146267414e-12       2.801199445102e-11      -1.237284574687e-14 
   56       1.033154268089e-09       4.168532360855e-14      -2.285648183482e-12       0.000000000000e+00       4.129064667004e-12       2.663802671278e-11      -1.220728719700e-14 
   57       1.031402248617e-09       4.365316613218e-14      -2.408047160236e-12       0.000000000000e+00       3.893369392790e-12       2.554447550057e-11      -1.158976486156e-14 
   58       1.030395968041e-09       4.564465006021e-14      -2.534792705398e-12       0.000000000000e+00       3.674232850331e-12       2.465412845746e-11      -1.070797317179e-14 
   59       1.030070589373e-09       4.766028931409e-14      -2.664734149691e-12       0.000000000000e+00       3.470341093724e-12       2.387502713473e-11      -9.780185350052e-15 
   60       1.030332426377e-09       4.970092935020e-14      -2.796554205490e-12       0.000000000000e+00       3.279866450088e-12       2.309977554119e-11      -9.056613108958e-15 
   61       1.031084331777e-09       5.176700860530e-14      -2.929030924964e-12       0.000000000000e+00       3.100916839322e-12       2.223080905477e-11      -8.756956714280e-15 
   62       1.032312169560e-09       5.385610593027e-14      -3.061908008348e-12       0.000000000000e+00       2.933063519190e-12       2.126439333404e-11      -8.863598821374e-15 
   63       1.034014978817e-09       5.596487401856e-14      -3.195208401399e-12       0.000000000000e+00       2.776109241307e-12       2.022433867869e-11      -9.284192330021e-15 
   64       1.036178944505e-09       5.808974361824e-14      -3.328984175743e-12       0.000000000000e+00       2.629629808016e-12       1.913783305292e-11      -9.910722081554e-15 
   65       1.038776641436e-09       6.022691858077e-14      -3.463318110889e-12       0.000000000000e+00       2.492961822050e-12       1.803557433741e-11      -1.061883992654e-14 
   66       1.041766278259e-09       6.237237090974e-14      -3.598325276238e-12       0.000000000000e+00       2.365190436217e-12       1.695190258124e-11      -1.126719979245e-14 
   67       1.045090941449e-09       6.452183580969e-14      -3.734154613094e-12       0.000000000000e+00       2.245137103067e-12       1.592493225394e-11      -1.169679275136e-14 
   68       1.048693790114e-09       6.667108759092e-14      -3.870919936861e-12       0.000000000000e+00       2.131635172799e-12       1.498871519645e-11      -1.177000720667e-14 
   69       1.052568905591e-09       6.881684337026e-14      -4.008473172570e-12       0.000000000000e+00       2.024448916599e-12       1.414758984088e-11      -1.149848640480e-14 
   70       1.056719434518e-09       7.095603443061e-14      -4.146587801776e-12       0.000000000000e+00       1.923519570215e-12       1.339684816997e-11      -1.094010274215e-14 
   71       1.061142207837e-09       7.308554375843e-14      -4.285025157781e-12       0.000000000000e+00       1.828689161407e-12       1.273017486002e-11      -1.016186967369e-14 
   72       1.065827392726e-09       7.520220827558e-14      -4.423534202540e-12       0.000000000000e+00       1.739695621471e-12       1.213957571441e-11      -9.240292768400e-15 
   73       1.070758144532e-09       7.730282107102e-14      -4.561851303557e-12       0.000000000000e+00       1.656167896755e-12       1.161530609713e-11      -8.261720764627e-15 
   74       1.075910258712e-09       7.938413363269e-14      -4.699700010789e-12       0.000000000000e+00       1.577621060188e-12       1.114579936632e-11      -7.322696625454e-15 
   75       1.081251822762e-09       8.144285807923e-14      -4.836790833547e-12       0.000000000000e+00       1.503451422796e-12       1.071759530776e-11      -6.530308594093e-15 
   76       1.086751315542e-09       8.347569127727e-14      -4.972842728206e-12       0.000000000000e+00       1.433069150929e-12       1.031788497433e-11      -5.977142008072e-15 
   77       1.092404379768e-09       8.547938733706e-14      -5.107652578230e-12       0.000000000000e+00       1.366334843453e-12       9.942839159595e-12      -5.660085422383e-15 
   78       1.098211321931e-09       8.745070245287e-14      -5.241038037702e-12       0.000000000000e+00       1.303194055011e-12       9.590675695755e-12      -5.547287398839e-15 
   79       1.104168926002e-09       8.938637682757e-14      -5.372817163033e-12       0.000000000000e+00       1.243544817672e-12       9.259160155804e-12      -5.602075210070e-15 
   80       1.110270278592e-09       9.128313735313e-14      -5.502808635059e-12       0.000000000000e+00       1.187235572117e-12       8.945587938558e-12      -5.782785062884e-15 
   81       1.116504594104e-09       9.313770029125e-14      -5.630831981140e-12       0.000000000000e+00       1.134063098827e-12       8.646766353703e-12      -6.042592321637e-15 
   82       1.122857039890e-09       9.494677395390e-14      -5.756707797262e-12       0.000000000000e+00       1.083770449269e-12       8.358996706844e-12      -6.329341731596e-15 
   83       1.129308561407e-09       9.670706138389e-14      -5.880257970132e-12       0.000000000000e+00       1.036044877085e-12       8.078056384552e-12      -6.585377642309e-15 
   84       1.135840613871e-09       9.841537061149e-14      -6.001300927167e-12       0.000000000000e+00       9.905851346904e-13       7.800189040193e-12      -6.759792551576e-15 
   85       1.142450641477e-09       1.000689605538e-13      -6.119635995184e-12       0.000000000000e+00       9.473207131446e-13       7.525303000529e-12      -6.847877685021e-15 
   86       1.149138855670e-09       1.016652576396e-13      -6.235056843863e-12       0.000000000000e+00       9.062253235296e-13       7.254272706295e-12      -6.857931617929e-15 
   87       1.155903465783e-09       1.032017577539e-13      -6.347356363805e-12       0.000000000000e+00       8.672498733560e-13       6.987976796987e-12      -6.799461802311e-15 
   88       1.162740586652e-09       1.046760307267e-13      -6.456326805068e-12       0.000000000000e+00       8.303215635563e-13       6.727297138777e-12      -6.683223501540e-15 
   89       1.169644146238e-09       1.060857248214e-13      -6.561759915699e-12       0.000000000000e+00       7.953429854774e-13       6.473117852431e-12      -6.521258724994e-15 
   90       1.176605793239e-09       1.074285712234e-13      -6.663447080269e-12       0.000000000000e+00       7.621912178735e-13       6.226324341226e-12      -6.326935162690e-15 
   91       1.183614804715e-09       1.087023885290e-13      -6.761179458408e-12       0.000000000000e+00       7.307169238987e-13       5.987802318864e-12      -6.114985119920e-15 
   92       1.190657993700e-09       1.099050872334e-13      -6.854748123338e-12       0.000000000000e+00       7.007434481000e-13       5.758436837392e-12      -5.901544451889e-15 
   93       1.197722863951e-09       1.110347658029e-13      -6.943947108261e-12       0.000000000000e+00       6.721039739430e-13       5.538960524109e-12      -5.700935147569e-15 
   94       1.204807817604e-09       1.120900056698e-13      -7.028582768718e-12       0.000000000000e+00       6.447613504533e-13       5.329474293924e-12      -5.515374979579e-15 
   95       1.211913319089e-09       1.130696291098e-13      -7.108466091020e-12       0.000000000000e+00       6.187047017977e-13       5.129852419402e-12      -5.343784969771e-15 
   96       1.219038737620e-09       1.139726172810e-13      -7.183410085912e-12       0.000000000000e+00       5.939125970836e-13       4.939883897665e-12      -5.184902152128e-15 
   97       1.226182299391e-09       1.147981159694e-13      -7.253229967031e-12       0.000000000000e+00       5.703526698032e-13       4.759269408425e-12      -5.037273808008e-15 
   98       1.233341039764e-09       1.155454413350e-13      -7.317743329349e-12       0.000000000000e+00       5.479812372761e-13       4.587618272018e-12      -4.899251701392e-15 
   99       1.240510755458e-09       1.162140856567e-13      -7.376770327626e-12       0.000000000000e+00       5.267429200934e-13       4.424445407435e-12      -4.768986314125e-15 
  100       1.247685956743e-09       1.168037230791e-13      -7.430133854861e-12       0.000000000000e+00       5.065702615606e-13       4.269168290360e-12      -4.644421081162e-15 
  101       1.254859819627e-09       1.173142153573e-13      -7.477659720738e-12       0.000000000000e+00       4.873833471418e-13       4.121103911197e-12      -4.523286625810e-15 
  102       1.262024138049e-09       1.177456176031e-13      -7.519176830080e-12       0.000000000000e+00       4.690894239022e-13       3.979465733110e-12      -4.403094994974e-15 
  103       1.269169276068e-09       1.180981840305e-13      -7.554517361296e-12       0.000000000000e+00       4.515825199524e-13       3.843360650048e-12      -4.281133894401e-15 
  104       1.276286233827e-09       1.183724504810e-13      -7.583517248251e-12       0.000000000000e+00       4.347650993028e-13       3.711972870552e-12      -4.155088639017e-15 
  105       1.283373266248e-09       1.185694823194e-13      -7.606017315640e-12       0.000000000000e+00       4.186171776060e-13       3.585150410883e-12      -4.025016104994e-15 
  106       1.290430073461e-09       1.186906708925e-13      -7.621862630387e-12       0.000000000000e+00       4.031358769417e-13       3.462892526291e-12      -3.891627924029e-15 
  107       1.297455742580e-09       1.187376662500e-13      -7.630902391503e-12       0.000000000000e+00       3.883140874051e-13       3.345168884160e-12      -3.755687699449e-15 
