# dimensionless total lensed [l(l+1)/2pi] C_l's
# for l=2 to 2500, i.e. number of multipoles equal to 2499
#
# -> if you prefer output in CAMB/HealPix/LensPix units/order, set 'format' to 'camb' in input file
# -> if you don't want to see such a header, set 'headers' to 'no' in input file
# -> for CMB lensing (phi), these are C_l^phi-phi for the lensing potential.
#    Remember the conversion factors:
#    C_l^dd (deflection) = l(l+1) C_l^phi-phi
#    C_l^gg (shear/convergence) = 1/4 (l(l+1))^2 C_l^phi-phi
#
# 1:l     2:TT                     3:EE                     4:TE                     5:BB                     6:phiphi                 7:TPhi                   8:Ephi               
    2       9.951332648556e-10       6.426924224520e-15       2.027844789526e-12       3.300865679928e-19       8.878191545522e-09       8.048811734907e-11      -2.259513922341e-12 
    3       9.567346383060e-10       8.338097192648e-15       2.245354821618e-12       6.602828869454e-19       5.646420294330e-09       1.112017109472e-10      -1.714190976770e-12 
    4       9.051691912690e-10       7.299380091681e-15       2.114396975086e-12       1.100713637840e-18       4.000130887261e-09       1.055638540649e-10      -1.121135041386e-12 
    5       8.529770432248e-10       4.929776647281e-15       1.802468259036e-12       1.651520360731e-18       3.030738119813e-09       9.306671743438e-11      -6.134247345646e-13 
    6       8.037785388059e-10       2.823951410541e-15       1.417886808166e-12       2.312875905600e-18       2.396524995603e-09       8.063099224961e-11      -2.293515004593e-13 
    7       7.583489493480e-10       1.657476620722e-15       1.034387513959e-12       3.084981813336e-18       1.952833618089e-09       6.968936089973e-11       2.565143156499e-14 
    8       7.167829566471e-10       1.272951004933e-15       6.959966989237e-13       3.968065270001e-18       1.628907245101e-09       6.039529321047e-11       1.648866590950e-13 
    9       6.789419692722e-10       1.211196488798e-15       4.249131027685e-13       4.962375686403e-18       1.384769624871e-09       5.258271133256e-11       2.118903811817e-13 
   10       6.444276624236e-10       1.137413421215e-15       2.277440684237e-13       6.068180962732e-18       1.195254708118e-09       4.606388924857e-11       1.946048558757e-13 
   11       6.129231814244e-10       9.673249785292e-16       1.007288075014e-13       7.285763505104e-18       9.960508481409e-10       4.031890228494e-11       1.413544066522e-13 
   12       5.841667217581e-10       7.727974467719e-16       3.379761117961e-14       8.615416067162e-18       8.766737040251e-10       3.391019556961e-11       7.423741652781e-14 
   13       5.578594582750e-10       6.388881442525e-16       1.382402434964e-14       1.005743749514e-17       7.776091984503e-10       3.117601938952e-11       1.185011760879e-14 
   14       5.337600046400e-10       5.883033721556e-16       2.725113264916e-14       1.161212845886e-17       6.949404162817e-10       2.819250973567e-11      -3.622906362005e-14 
   15       5.117476951248e-10       5.885073637267e-16       6.176410818728e-14       1.327978725358e-17       6.253565830170e-10       2.340355585511e-11      -6.683868071157e-14 
   16       4.916632366836e-10       5.953507018269e-16       1.070417850785e-13       1.506070575863e-17       5.655358898114e-10       2.169080073120e-11      -7.945001507010e-14 
   17       4.732462474443e-10       5.859347589674e-16       1.551500046097e-13       1.695516563756e-17       5.140362666218e-10       1.980371889632e-11      -7.899473560144e-14 
   18       4.562945988518e-10       5.641317199854e-16       2.005934792936e-13       1.896343479658e-17       4.691611661806e-10       1.790517848313e-11      -7.065016596431e-14 
   19       4.408832403134e-10       5.449147504762e-16       2.405435749228e-13       2.108576463174e-17       4.302254567727e-10       1.629839114052e-11      -5.842222005499e-14 
   20       4.267126850174e-10       5.461428775781e-16       2.731760248379e-13       2.332238662347e-17       3.958029028072e-10       1.470871826725e-11      -4.662893304956e-14 
   21       4.137732512663e-10       5.743911771588e-16       2.982249508892e-13       2.567351164534e-17       3.653801067109e-10       1.321154902723e-11      -3.674958853806e-14 
   22       4.018984538870e-10       6.309894415320e-16       3.164406886422e-13       2.813932643721e-17       3.382438660793e-10       1.196547884465e-11      -2.912683743281e-14 
   23       3.910536038822e-10       7.128161947006e-16       3.288441528977e-13       3.071999532123e-17       3.140511724171e-10       1.090694101815e-11      -2.321711540237e-14 
   24       3.810839456306e-10       8.144660960969e-16       3.368861020223e-13       3.341565659128e-17       2.922802676718e-10       9.887846676092e-12      -1.805866940499e-14 
   25       3.719706158725e-10       9.339507504537e-16       3.416927198168e-13       3.622642746842e-17       2.726964979244e-10       8.872470752848e-12      -1.320694911046e-14 
   26       3.636203167258e-10       1.070100021600e-15       3.444983006584e-13       3.915239942008e-17       2.549624735736e-10       7.864933948541e-12      -8.387118567985e-15 
   27       3.559805095762e-10       1.223017236357e-15       3.463738352220e-13       4.219364426059e-17       2.388756332549e-10       6.922664367428e-12      -3.753468398622e-15 
   28       3.489419336423e-10       1.392898917028e-15       3.483667842353e-13       4.535021137671e-17       2.241677372031e-10       6.111804295509e-12       3.489452896053e-16 
   29       3.425132963340e-10       1.579189224809e-15       3.509580427115e-13       4.862214263765e-17       2.107714480822e-10       5.437681312616e-12       3.403839131434e-15 
   30       3.366531341601e-10       1.780751744992e-15       3.544670636510e-13       5.200945958596e-17       1.985516781515e-10       4.876907121068e-12       4.769179987842e-15 
   31       3.312481086290e-10       1.996566484078e-15       3.591328490498e-13       5.551216522163e-17       1.872703649702e-10       4.398511136443e-12       3.905572627338e-15 
   32       3.262984607932e-10       2.227977469985e-15       3.648101858316e-13       5.913027040754e-17       1.768775622272e-10       3.993120320076e-12       1.120375372420e-15 
   33       3.217860378454e-10       2.477315697935e-15       3.711413500654e-13       6.286377639924e-17       1.673085677196e-10       3.653384489264e-12      -2.875746071841e-15 
   34       3.176474881526e-10       2.746653549975e-15       3.776570273675e-13       6.671267489293e-17       1.584397456827e-10       3.365905372899e-12      -7.239641466683e-15 
   35       3.138758877607e-10       3.035383638740e-15       3.838991714528e-13       7.067697319157e-17       1.502319460478e-10       3.111405190265e-12      -1.133159824672e-14 
   36       3.104447256490e-10       3.341759782012e-15       3.893240261043e-13       7.475667811557e-17       1.426252878577e-10       2.863654934176e-12      -1.447881962928e-14 
   37       3.073001143515e-10       3.664199336572e-15       3.933763860786e-13       7.895179637690e-17       1.355273132856e-10       2.597018129014e-12      -1.606141560577e-14 
   38       3.044433809096e-10       4.003690649397e-15       3.958868608795e-13       8.326235744849e-17       1.289224831101e-10       2.314423494886e-12      -1.613935193774e-14 
   39       3.018694158809e-10       4.362184711428e-15       3.968012750638e-13       8.768839944634e-17       1.227917411309e-10       2.028448082599e-12      -1.503586989310e-14 
   40       2.995406915651e-10       4.741979867475e-15       3.960752227744e-13       9.222996415808e-17       1.170790461448e-10       1.753995598790e-12      -1.317895762872e-14 
   41       2.974054211147e-10       5.145401832806e-15       3.937084223858e-13       9.688710012441e-17       1.117114240598e-10       1.505073402290e-12      -1.102865315623e-14 
   42       2.954664163287e-10       5.573663649202e-15       3.898594539501e-13       1.016598709143e-16       1.066747765314e-10       1.283549324872e-12      -8.812987342715e-15 
   43       2.937295545486e-10       6.027672985927e-15       3.847696167861e-13       1.065483510669e-16       1.019572881787e-10       1.086953486267e-12      -6.718337090931e-15 
   44       2.921829899452e-10       6.508342144508e-15       3.787355323222e-13       1.115526251826e-16       9.752664533630e-11       9.114165624541e-13      -4.963735158773e-15 
   45       2.908054084490e-10       7.016465809939e-15       3.720403639548e-13       1.166727802109e-16       9.334208489018e-11       7.524532079815e-13      -3.750226920512e-15 
   46       2.895974340212e-10       7.552312735045e-15       3.647157931375e-13       1.219088770731e-16       8.939870922026e-11       6.078298404598e-13      -3.086734872018e-15 
   47       2.885569418295e-10       8.115910532640e-15       3.567140541022e-13       1.272609723528e-16       8.569362399361e-11       4.753822497683e-13      -2.915130993362e-15 
   48       2.876690712907e-10       8.707148830498e-15       3.479725078111e-13       1.327291268652e-16       8.221256321473e-11       3.521566660988e-13      -3.156898113746e-15 
   49       2.869052223652e-10       9.325771425819e-15       3.384125454388e-13       1.383134062085e-16       7.892903426611e-11       2.343596083974e-13      -3.711873444533e-15 
   50       2.862335203943e-10       9.971550508098e-15       3.279471350727e-13       1.440138631248e-16       7.581252573874e-11       1.186325108801e-13      -4.472605057417e-15 
   51       2.856558879609e-10       1.064488328068e-14       3.165084206786e-13       1.498304776567e-16       7.285774093491e-11       6.399834676108e-15      -5.374930395342e-15 
   52       2.851793007991e-10       1.134634372391e-14       3.040257191637e-13       1.557632017003e-16       7.006182161957e-11      -9.938548810313e-14      -6.358954846438e-15 
   53       2.848047457395e-10       1.207651538618e-14       2.904168585014e-13       1.618119754781e-16       6.741556045426e-11      -1.954517763760e-13      -7.354129358003e-15 
   54       2.845267566995e-10       1.283599210634e-14       2.755874879528e-13       1.679767272348e-16       6.490297252197e-11      -2.781964091507e-13      -8.278728696353e-15 
   55       2.843370791069e-10       1.362531496421e-14       2.594509453343e-13       1.742573560636e-16       6.250631413148e-11      -3.447270932233e-13      -9.055747836839e-15 
   56       2.842377921908e-10       1.444476313566e-14       2.419952186072e-13       1.806536760887e-16       6.022358084395e-11      -3.963165088443e-13      -9.666410797479e-15 
   57       2.842306337999e-10       1.529451234679e-14       2.232314107840e-13       1.871654578827e-16       5.805460582389e-11      -4.357845188116e-13      -1.010904067949e-14 
   58       2.843128610146e-10       1.617469236979e-14       2.031747490399e-13       1.937924431798e-16       5.599578187034e-11      -4.665481257175e-13      -1.038392152687e-14 
   59       2.844769469854e-10       1.708538526077e-14       1.818446958589e-13       2.005343439136e-16       5.403984517335e-11      -4.926503248518e-13      -1.049341625363e-14 
   60       2.847102777714e-10       1.802662359752e-14       1.592650601789e-13       2.073908412551e-16       5.217565907049e-11      -5.187889571051e-13      -1.044208457111e-14 
   61       2.849997106396e-10       1.899840452192e-14       1.354603610939e-13       2.143615918222e-16       5.039143644755e-11      -5.491762009605e-13      -1.024018631919e-14 
   62       2.853471304258e-10       2.000073953733e-14       1.104437137302e-13       2.214462501117e-16       4.868574136698e-11      -5.837526250478e-13      -9.914843580436e-15 
   63       2.857568628915e-10       2.103361281251e-14       8.422640908041e-14       2.286444494180e-16       4.705858438342e-11      -6.211706716295e-13      -9.501604688603e-15 
   64       2.862309754228e-10       2.209696512752e-14       5.682141390055e-14       2.359557943870e-16       4.550809679125e-11      -6.598809432212e-13      -9.041500791099e-15 
   65       2.867691281194e-10       2.319069261298e-14       2.824336295218e-14       2.433798602811e-16       4.403042348663e-11      -6.981239525571e-13      -8.581271192560e-15 
   66       2.873684248835e-10       2.431464548930e-14      -1.491448755419e-15       2.509161922456e-16       4.261961582961e-11      -7.339218725556e-13      -8.173588698420e-15 
   67       2.880232645084e-10       2.546862680591e-14      -3.236507372313e-14       2.585643045735e-16       4.126752450620e-11      -7.650702862852e-13      -7.877284958488e-15 
   68       2.887277408914e-10       2.665242256410e-14      -6.436464661014e-14       2.663237261574e-16       3.996601954951e-11      -7.896766330955e-13      -7.742113759843e-15 
   69       2.894837412870e-10       2.786590199132e-14      -9.750415546027e-14       2.741941491797e-16       3.871441224583e-11      -8.079206814703e-13      -7.758952088800e-15 
   70       2.902942290017e-10       2.910893541353e-14      -1.318071161045e-13       2.821753093696e-16       3.751335154468e-11      -8.206375925830e-13      -7.899866947781e-15 
   71       2.911607572432e-10       3.038136421956e-14      -1.673004121693e-13       2.902669429226e-16       3.636258319578e-11      -8.288084155941e-13      -8.132517540746e-15 
   72       2.920833854038e-10       3.168300040292e-14      -2.040144748772e-13       2.984687869468e-16       3.526090212924e-11      -8.335658196162e-13      -8.419985167907e-15 
   73       2.930605953443e-10       3.301362610378e-14      -2.419834628487e-13       3.067805799100e-16       3.420610483580e-11      -8.361998256791e-13      -8.720603120430e-15 
   74       2.940892076781e-10       3.437299315079e-14      -2.812454419027e-13       3.152020620866e-16       3.319494174706e-11      -8.381635386941e-13      -8.987786575141e-15 
   75       2.951642980544e-10       3.576082260304e-14      -3.218425648579e-13       3.237329760041e-16       3.222306961565e-11      -8.410788794193e-13      -9.169862489239e-15 
   76       2.962809643389e-10       3.717678553557e-14      -3.638094994881e-13       3.323730985171e-16       3.128616412279e-11      -8.463678846948e-13      -9.222570155124e-15 
   77       2.974401852481e-10       3.862044236371e-14      -4.071358787131e-13       3.411223427929e-16       3.038359719871e-11      -8.540563164872e-13      -9.149570582874e-15 
   78       2.986438829329e-10       4.009129157057e-14      -4.517972978685e-13       3.499806758215e-16       2.951534687929e-11      -8.637612853990e-13      -8.969049472489e-15 
   79       2.998931218387e-10       4.158878665266e-14      -4.977663989018e-13       3.589480895164e-16       2.868087312546e-11      -8.750444133050e-13      -8.701790156358e-15 
   80       3.011880629430e-10       4.311233527726e-14      -5.450128091930e-13       3.680246018099e-16       2.787909399474e-11      -8.874098872911e-13      -8.371263316117e-15 
   81       3.025279179933e-10       4.466129843959e-14      -5.935030803743e-13       3.772102577486e-16       2.710836181295e-11      -9.003025135936e-13      -8.003716699505e-15 
   82       3.039109037453e-10       4.623498962020e-14      -6.432006271500e-13       3.865051305884e-16       2.636643934574e-11      -9.131057715380e-13      -7.628264837219e-15 
   83       3.053341962005e-10       4.783267394214e-14      -6.940656661166e-13       3.959093228904e-16       2.565047597026e-11      -9.251398674777e-13      -7.276978759772e-15 
   84       3.067950509586e-10       4.945359519254e-14      -7.460608387365e-13       4.054229287988e-16       2.495771483826e-11      -9.358019859334e-13      -6.977991018838e-15 
   85       3.082944779145e-10       5.109706387987e-14      -7.991692853148e-13       4.150459112911e-16       2.428780125864e-11      -9.450180203116e-13      -6.733300899385e-15 
   86       3.098340946784e-10       5.276238229748e-14      -8.533794690654e-13       4.247782064921e-16       2.364081508691e-11      -9.528625097523e-13      -6.537437165799e-15 
   87       3.114149888469e-10       5.444881758841e-14      -9.086797922074e-13       4.346197611187e-16       2.301656238580e-11      -9.594235375387e-13      -6.384088349350e-15 
   88       3.130376918397e-10       5.615560137099e-14      -9.650586303161e-13       4.445705329226e-16       2.241456388237e-11      -9.648031749050e-13      -6.266075075208e-15 
   89       3.147021527362e-10       5.788192936445e-14      -1.022504366676e-12       4.546304911331e-16       2.183404342526e-11      -9.691179248444e-13      -6.175322389460e-15 
   90       3.164077121118e-10       5.962696101446e-14      -1.081005426632e-12       4.647996169004e-16       2.127391644183e-11      -9.724991659168e-13      -6.102832086122e-15 
   91       3.181530758747e-10       6.138981911877e-14      -1.140550311941e-12       4.750779037386e-16       2.073277839539e-11      -9.750935960567e-13      -6.038655034160e-15 
   92       3.199362891018e-10       6.316958945273e-14      -1.201127635127e-12       4.854653579683e-16       2.020889324237e-11      -9.770636763812e-13      -5.971863504501e-15 
   93       3.217554922983e-10       6.496533363211e-14      -1.262723786505e-12       4.959619755308e-16       1.970062112617e-11      -9.785661755871e-13      -5.892742366630e-15 
   94       3.236113771121e-10       6.677613072739e-14      -1.325315459292e-12       5.065676674778e-16       1.920780011192e-11      -9.796831478870e-13      -5.799799765354e-15 
   95       3.255050533034e-10       6.860104124513e-14      -1.388876058556e-12       5.172823240417e-16       1.873055189021e-11      -9.804813464030e-13      -5.693764591955e-15 
   96       3.274372840149e-10       7.043909425832e-14      -1.453377970198e-12       5.281058373842e-16       1.826885561736e-11      -9.810333388964e-13      -5.575464312032e-15 
   97       3.294084703481e-10       7.228928721369e-14      -1.518792562811e-12       5.390381017143e-16       1.782254240193e-11      -9.814176509653e-13      -5.445827750574e-15 
   98       3.314186359403e-10       7.415058573901e-14      -1.585090189537e-12       5.500790134068e-16       1.739128979124e-11      -9.817189092437e-13      -5.305887877033e-15 
   99       3.334674115408e-10       7.602192345035e-14      -1.652240189919e-12       5.612284711217e-16       1.697461625791e-11      -9.820279845988e-13      -5.156784590403e-15 
  100       3.355540195882e-10       7.790220175941e-14      -1.720210891758e-12       5.724863759219e-16       1.657187568636e-11      -9.824421353301e-13      -4.999767504287e-15 
  101       3.376772587867e-10       7.979028968076e-14      -1.788969612975e-12       5.838526313926e-16       1.618225185933e-11      -9.830651503670e-13      -4.836198731978e-15 
  102       3.398354886826e-10       8.168502363920e-14      -1.858482663458e-12       5.953271437593e-16       1.580475294439e-11      -9.840074924673e-13      -4.667555671530e-15 
  103       3.420266142414e-10       8.358520727697e-14      -1.928715346925e-12       6.069098220069e-16       1.543820598048e-11      -9.853864414157e-13      -4.495433790833e-15 
  104       3.442487311437e-10       8.548963679536e-14      -1.999632664794e-12       6.186006482207e-16       1.508152859937e-11      -9.872909939770e-13      -4.321423739129e-15 
  105       3.465021941690e-10       8.739718129298e-14      -2.071201532094e-12       6.303998991766e-16       1.473459786859e-11      -9.896708553238e-13      -4.146717777018e-15 
  106       3.487878007678e-10       8.930671297126e-14      -2.143388865744e-12       6.423079550451e-16       1.439748908421e-11      -9.924326491223e-13      -3.972455125556e-15 
  107       3.511061472284e-10       9.121708265614e-14      -2.216160918724e-12       6.543252327210e-16       1.407020657947e-11      -9.954735805418e-13      -3.799844279313e-15 
