# dimensionless total [l(l+1)/2pi] C_l's
# for l=2 to 3000, i.e. number of multipoles equal to 2999
#
# -> if you prefer output in CAMB/HealPix/LensPix units/order, set 'format' to 'camb' in input file
# -> if you don't want to see such a header, set 'headers' to 'no' in input file
# -> for CMB lensing (phi), these are C_l^phi-phi for the lensing potential.
#    Remember the conversion factors:
#    C_l^dd (deflection) = l(l+1) C_l^phi-phi
#    C_l^gg (shear/convergence) = 1/4 (l(l+1))^2 C_l^phi-phi
#
# 1:l     2:TT                     3:EE                     4:TE                     5:BB                     6:phiphi                 7:TPhi                   8:Ephi               
    2       1.275145354625e-09       6.241704850662e-15       2.214477157358e-12       0.000000000000e+00       8.484058877291e-09       9.923630256346e-12      -2.258679545993e-12 
    3       1.241386658947e-09       7.962950832485e-15       2.411560112671e-12       0.000000000000e+00       5.293273017651e-09       6.760663753708e-11      -1.708884757726e-12 
    4       1.191636538051e-09       6.838841033893e-15       2.246992465887e-12       0.000000000000e+00       3.711623978713e-09       7.473805067440e-11      -1.116778962225e-12 
    5       1.139744871229e-09       4.502198062857e-15       1.907544372992e-12       0.000000000000e+00       2.786890176127e-09       6.937625460985e-11      -6.171578429389e-13 
    6       1.089621470443e-09       2.458349604575e-15       1.506226669766e-12       0.000000000000e+00       2.187661087900e-09       6.142849939411e-11      -2.476301713629e-13 
    7       1.042552732807e-09       1.289536025722e-15       1.115172894315e-12       0.000000000000e+00       1.773978825223e-09       5.351895109236e-11      -1.091632351958e-14 
    8       9.987837854883e-10       8.255668520401e-16       7.736049175004e-13       0.000000000000e+00       1.473852143974e-09       4.645049494324e-11       1.100978079396e-13 
    9       9.581451103080e-10       6.738628350302e-16       4.990807778145e-13       0.000000000000e+00       1.247381803470e-09       4.041918558612e-11       1.429415669627e-13 
   10       9.205997393769e-10       5.789357912087e-16       2.952520276389e-13       0.000000000000e+00       1.071527282817e-09       3.532015847770e-11       1.187967315016e-13 
   11       8.858589188455e-10       4.829187964414e-16       1.572274878253e-13       0.000000000000e+00       8.986246128177e-10       2.994918536053e-11       6.682989321523e-14 
   12       8.536595221783e-10       4.173525885521e-16       7.559951021691e-14       0.000000000000e+00       7.878264519866e-10       2.699692256450e-11       1.117065731812e-14 
   13       8.238581713472e-10       3.982688947271e-16       3.936261329674e-14       0.000000000000e+00       6.970897368517e-10       2.201443019296e-11      -3.373650515173e-14 
   14       7.962793064865e-10       4.016087298368e-16       3.741321764870e-14       0.000000000000e+00       6.209763639096e-10       2.035249468555e-11      -5.949943028130e-14 
   15       7.707088764407e-10       3.950053559412e-16       5.949333621451e-14       0.000000000000e+00       5.568765214572e-10       1.816133677389e-11      -6.622500956965e-14 
   16       7.469225423144e-10       3.688765032984e-16       9.681339879418e-14       0.000000000000e+00       5.026130471693e-10       1.362305952951e-11      -5.875142908660e-14 
   17       7.248500902809e-10       3.380830328213e-16       1.420421671965e-13       0.000000000000e+00       4.554964336514e-10       1.276679483984e-11      -4.131303011024e-14 
   18       7.043422325666e-10       3.249311923995e-16       1.894125828206e-13       0.000000000000e+00       4.145181468178e-10       1.199669390362e-11      -2.170149771305e-14 
   19       6.854976821806e-10       3.362556715122e-16       2.351861049312e-13       0.000000000000e+00       3.791827904394e-10       1.043452510426e-11      -4.529167876207e-15 
   20       6.678967579840e-10       3.715290040252e-16       2.760108914814e-13       0.000000000000e+00       3.479679306890e-10       9.152487569886e-12       6.940573275418e-15 
   21       6.515930752597e-10       4.244479747468e-16       3.101684346221e-13       0.000000000000e+00       3.203949905141e-10       8.167696074038e-12       1.217813886286e-14 
   22       6.364529752266e-10       4.861908498605e-16       3.367852528635e-13       0.000000000000e+00       2.958723419220e-10       7.151850248940e-12       1.208530480937e-14 
   23       6.224654144055e-10       5.557662318352e-16       3.556804964010e-13       0.000000000000e+00       2.740730409334e-10       6.142500792723e-12       8.342369039517e-15 
   24       6.094355055011e-10       6.347232158184e-16       3.673344646873e-13       0.000000000000e+00       2.544875860360e-10       5.266641869836e-12       3.163280537226e-15 
   25       5.973654531838e-10       7.245095083530e-16       3.728387663995e-13       0.000000000000e+00       2.369011457063e-10       4.440929520411e-12      -2.134800694540e-15 
   26       5.861540502008e-10       8.262818274643e-16       3.738448410091e-13       0.000000000000e+00       2.210136578938e-10       3.555245801130e-12      -6.487920836191e-15 
   27       5.757412255839e-10       9.396313712041e-16       3.719839538038e-13       0.000000000000e+00       2.066203888347e-10       2.811418374609e-12      -9.506948028247e-15 
   28       5.659823312031e-10       1.063690489783e-15       3.690349533753e-13       0.000000000000e+00       1.934539261027e-10       2.461755560928e-12      -1.112940175207e-14 
   29       5.569061297665e-10       1.198835708103e-15       3.661727953566e-13       0.000000000000e+00       1.814640719124e-10       2.381412870118e-12      -1.179652463364e-14 
   30       5.484725027689e-10       1.345855516330e-15       3.645472788447e-13       0.000000000000e+00       1.705565172137e-10       2.272820481554e-12      -1.226191880145e-14 
   31       5.405369895410e-10       1.505531724431e-15       3.652622024100e-13       0.000000000000e+00       1.605425042726e-10       1.852938918467e-12      -1.324048944988e-14 
   32       5.331033159287e-10       1.678378020922e-15       3.684418373238e-13       0.000000000000e+00       1.513629395157e-10       1.221364227060e-12      -1.443140609024e-14 
   33       5.261417662642e-10       1.864799183728e-15       3.737955777343e-13       0.000000000000e+00       1.429291235428e-10       6.341356949641e-13      -1.511882270516e-14 
   34       5.195573505651e-10       2.065255645250e-15       3.808305473984e-13       0.000000000000e+00       1.351009316914e-10       3.335204388831e-13      -1.461698233263e-14 
   35       5.133483388004e-10       2.280615410570e-15       3.888146088648e-13       0.000000000000e+00       1.278458804536e-10       2.700897107673e-13      -1.298395872590e-14 
   36       5.074884832482e-10       2.511930695945e-15       3.967693354131e-13       0.000000000000e+00       1.211252152226e-10       2.816126723460e-13      -1.056187323529e-14 
   37       5.019129191058e-10       2.760157451181e-15       4.036586232263e-13       0.000000000000e+00       1.148711824233e-10       2.068619296007e-13      -7.760979203710e-15 
   38       4.966387050808e-10       3.025491211756e-15       4.090659321575e-13       0.000000000000e+00       1.090699691868e-10       3.543849855214e-14      -4.937689277096e-15 
   39       4.916747738746e-10       3.307803329268e-15       4.127281079025e-13       0.000000000000e+00       1.036999740644e-10      -1.935938239961e-13      -2.485728684655e-15 
   40       4.869839589477e-10       3.606805092174e-15       4.143519571929e-13       0.000000000000e+00       9.870585255320e-11      -4.309578184177e-13      -8.745851503894e-16 
   41       4.825056345808e-10       3.922247432746e-15       4.137073860565e-13       0.000000000000e+00       9.401760055735e-11      -6.293513555982e-13      -5.103419013057e-16 
   42       4.782432168413e-10       4.254623813523e-15       4.109471171090e-13       0.000000000000e+00       8.962231844518e-11      -7.864008448605e-13      -1.252946180836e-15 
   43       4.741976435357e-10       4.604678245823e-15       4.063883642198e-13       0.000000000000e+00       8.551087788880e-11      -9.145591739485e-13      -2.749318231692e-15 
   44       4.703401867221e-10       4.973218443333e-15       4.004319078726e-13       0.000000000000e+00       8.165653495460e-11      -1.029659935876e-12      -4.558117961173e-15 
   45       4.666297130634e-10       5.361009632421e-15       3.934980284058e-13       0.000000000000e+00       7.802487632522e-11      -1.146638068982e-12      -6.236155026930e-15 
   46       4.630767372629e-10       5.768409127110e-15       3.857998645674e-13       0.000000000000e+00       7.461054047358e-11      -1.264665181326e-12      -7.641174058435e-15 
   47       4.596941011177e-10       6.195629002111e-15       3.775106722612e-13       0.000000000000e+00       7.140906613739e-11      -1.377931905279e-12      -8.710387242444e-15 
   48       4.564773636846e-10       6.642834165247e-15       3.688278570360e-13       0.000000000000e+00       6.840574146054e-11      -1.479709141102e-12      -9.376393581991e-15 
   49       4.534033482374e-10       7.110139840613e-15       3.599739238638e-13       0.000000000000e+00       6.557484243086e-11      -1.562301954904e-12      -9.567056678091e-15 
   50       4.504417873335e-10       7.597652766065e-15       3.511282460462e-13       0.000000000000e+00       6.288749705277e-11      -1.619523565902e-12      -9.237691777121e-15 
   51       4.475973554933e-10       8.105613807936e-15       3.421983345007e-13       0.000000000000e+00       6.033956122539e-11      -1.655015940821e-12      -8.478210314554e-15 
   52       4.448765341431e-10       8.634289706966e-15       3.329881238565e-13       0.000000000000e+00       5.792999304932e-11      -1.676108040587e-12      -7.434847284638e-15 
   53       4.422746938753e-10       9.183932298579e-15       3.232594758415e-13       0.000000000000e+00       5.565254120933e-11      -1.691563898952e-12      -6.281758911912e-15 
   54       4.397752577871e-10       9.754778053191e-15       3.127298734895e-13       0.000000000000e+00       5.349538932893e-11      -1.711655112895e-12      -5.222420868941e-15 
   55       4.373582000860e-10       1.034706845022e-14       3.011304278016e-13       0.000000000000e+00       5.144487955370e-11      -1.745330287770e-12      -4.444837094107e-15 
   56       4.350299309425e-10       1.096111808019e-14       2.884020547572e-13       0.000000000000e+00       4.949858127651e-11      -1.790733869714e-12      -3.970932893166e-15 
   57       4.327993701987e-10       1.159726265547e-14       2.745439941069e-13       0.000000000000e+00       4.765484602340e-11      -1.842458960295e-12      -3.772196939054e-15 
   58       4.306687998961e-10       1.225584000318e-14       2.595578098299e-13       0.000000000000e+00       4.590882023533e-11      -1.894204271214e-12      -3.812200052820e-15 
   59       4.286333913261e-10       1.293719041721e-14       2.434474341770e-13       0.000000000000e+00       4.425224855374e-11      -1.938733509049e-12      -4.046193834349e-15 
   60       4.266807320806e-10       1.364165701018e-14       2.262192117136e-13       0.000000000000e+00       4.267327710625e-11      -1.967834759990e-12      -4.420709293094e-15 
   61       4.247968111499e-10       1.436948259066e-14       2.078840575202e-13       0.000000000000e+00       4.115977567617e-11      -1.974583468185e-12      -4.879924351804e-15 
   62       4.229866140284e-10       1.512047244945e-14       1.884643982407e-13       0.000000000000e+00       3.971062062576e-11      -1.960816822567e-12      -5.387344538399e-15 
   63       4.212573321826e-10       1.589425616221e-14       1.679888742725e-13       0.000000000000e+00       3.832660699875e-11      -1.931272639080e-12      -5.908298668378e-15 
   64       4.196120501973e-10       1.669038151213e-14       1.464904720119e-13       0.000000000000e+00       3.700706973760e-11      -1.891465643856e-12      -6.403416495720e-15 
   65       4.180494777347e-10       1.750831155871e-14       1.240066349780e-13       0.000000000000e+00       3.574979862059e-11      -1.847719949239e-12      -6.828442114833e-15 
   66       4.165636814945e-10       1.834742170660e-14       1.005793749363e-13       0.000000000000e+00       3.455095319908e-11      -1.807201529803e-12      -7.134047362500e-15 
   67       4.151438171737e-10       1.920699677447e-14       7.625538302229e-14       0.000000000000e+00       3.340497773462e-11      -1.777950698376e-12      -7.265645219824e-15 
   68       4.137787398676e-10       2.008637108358e-14       5.107432391899e-14       0.000000000000e+00       3.230613367796e-11      -1.766829626645e-12      -7.179177319983e-15 
   69       4.124725192249e-10       2.098538823777e-14       2.503071568343e-14       0.000000000000e+00       3.125364782985e-11      -1.772809377166e-12      -6.892608280719e-15 
   70       4.112316009969e-10       2.190402966934e-14      -1.895510092662e-15       0.000000000000e+00       3.024745931550e-11      -1.792374738943e-12      -6.444578207056e-15 
   71       4.100600660526e-10       2.284228057601e-14      -2.972806243979e-14       0.000000000000e+00       2.928665143035e-11      -1.821468356953e-12      -5.879569758389e-15 
   72       4.089594871067e-10       2.380013064748e-14      -5.849448211076e-14       0.000000000000e+00       2.836940794661e-11      -1.855469884496e-12      -5.248130095335e-15 
   73       4.079287854473e-10       2.477757479210e-14      -8.822633268063e-14       0.000000000000e+00       2.749296941974e-11      -1.889175135552e-12      -4.607092826586e-15 
   74       4.069640876645e-10       2.577461386346e-14      -1.189593916468e-13       0.000000000000e+00       2.665358949505e-11      -1.916775237136e-12      -4.019799955763e-15 
   75       4.060585823777e-10       2.679125538706e-14      -1.507338415289e-13       0.000000000000e+00       2.584649121415e-11      -1.931835781650e-12      -3.556323828267e-15 
   76       4.052053900432e-10       2.782742658381e-14      -1.835830839028e-13       0.000000000000e+00       2.506706598931e-11      -1.928946946059e-12      -3.276104445401e-15 
   77       4.044070932497e-10       2.888269352357e-14      -2.174974041304e-13       0.000000000000e+00       2.431481952757e-11      -1.909067327197e-12      -3.171715485089e-15 
   78       4.036676920964e-10       2.995649184012e-14      -2.524539971239e-13       0.000000000000e+00       2.359006942577e-11      -1.875121232048e-12      -3.215199333807e-15 
   79       4.029896651207e-10       3.104820883642e-14      -2.884277150884e-13       0.000000000000e+00       2.289274842068e-11      -1.830427360211e-12      -3.374605601397e-15 
   80       4.023738878128e-10       3.215718241279e-14      -3.253910253253e-13       0.000000000000e+00       2.222238617741e-11      -1.778712220774e-12      -3.613852480790e-15 
   81       4.018195511288e-10       3.328269999514e-14      -3.633139680369e-13       0.000000000000e+00       2.157809107789e-11      -1.724123549202e-12      -3.892588107715e-15 
   82       4.013240800043e-10       3.442399746317e-14      -4.021641141300e-13       0.000000000000e+00       2.095853200929e-11      -1.671243724217e-12      -4.166051920415e-15 
   83       4.008830518686e-10       3.558025807855e-14      -4.419065230204e-13       0.000000000000e+00       2.036192015244e-11      -1.625103184684e-12      -4.384936019368e-15 
   84       4.004920801750e-10       3.675066866439e-14      -4.825082361846e-13       0.000000000000e+00       1.978646184619e-11      -1.590071736873e-12      -4.506302576727e-15 
   85       4.001530022556e-10       3.793460119202e-14      -5.239527061610e-13       0.000000000000e+00       1.923184333233e-11      -1.566291907332e-12      -4.528719259482e-15 
   86       3.998685726507e-10       3.913145947235e-14      -5.662276933288e-13       0.000000000000e+00       1.869795990436e-11      -1.552676165535e-12      -4.462721407062e-15 
   87       3.996405415509e-10       4.034062447313e-14      -6.093209763719e-13       0.000000000000e+00       1.818445657355e-11      -1.547971100555e-12      -4.320320345040e-15 
   88       3.994696063368e-10       4.156145420941e-14      -6.532203863140e-13       0.000000000000e+00       1.769071777467e-11      -1.550751978955e-12      -4.115050560812e-15 
   89       3.993553631177e-10       4.279328363393e-14      -6.979138405534e-13       0.000000000000e+00       1.721585707162e-11      -1.559417302692e-12      -3.862016879271e-15 
   90       3.992962582713e-10       4.403542452751e-14      -7.433893768985e-13       0.000000000000e+00       1.675870686314e-11      -1.572183367008e-12      -3.577941638486e-15 
   91       3.992895399821e-10       4.528716538950e-14      -7.896351876024e-13       0.000000000000e+00       1.631780808848e-11      -1.587078818335e-12      -3.281211865381e-15 
   92       3.993312097815e-10       4.654777132816e-14      -8.366396533988e-13       0.000000000000e+00       1.589139993306e-11      -1.601939212184e-12      -2.991926451409e-15 
   93       3.994175733641e-10       4.781648556269e-14      -8.843893344247e-13       0.000000000000e+00       1.547783551789e-11      -1.614814816492e-12      -2.728005789569e-15 
   94       3.995502651067e-10       4.909253442582e-14      -9.328625234181e-13       0.000000000000e+00       1.507692284379e-11      -1.625276001834e-12      -2.492748908079e-15 
   95       3.997318931545e-10       5.037512291449e-14      -9.820347813368e-13       0.000000000000e+00       1.468876743050e-11      -1.633295033627e-12      -2.285483444062e-15 
   96       3.999644813239e-10       5.166343305898e-14      -1.031880899986e-12       0.000000000000e+00       1.431335991560e-11      -1.638850547500e-12      -2.105329653935e-15 
   97       4.002494425946e-10       5.295662383544e-14      -1.082374908010e-12       0.000000000000e+00       1.395057160758e-11      -1.641927779753e-12      -1.951193539139e-15 
   98       4.005875526015e-10       5.425383107839e-14      -1.133490076878e-12       0.000000000000e+00       1.360015003890e-11      -1.642518797798e-12      -1.821759971864e-15 
   99       4.009789231273e-10       5.555416739330e-14      -1.185198926876e-12       0.000000000000e+00       1.326171451916e-11      -1.640622730613e-12      -1.715485820789e-15 
  100       4.014229755945e-10       5.685672206909e-14      -1.237473233098e-12       0.000000000000e+00       1.293475168809e-11      -1.636245999193e-12      -1.630593076803e-15 
  101       4.019184145574e-10       5.816056099066e-14      -1.290284031434e-12       0.000000000000e+00       1.261861106871e-11      -1.629402546996e-12      -1.565061978736e-15 
  102       4.024632011947e-10       5.946472655145e-14      -1.343601624558e-12       0.000000000000e+00       1.231250062037e-11      -1.620114070395e-12      -1.516624139096e-15 
  103       4.030545268010e-10       6.076823756594e-14      -1.397395587920e-12       0.000000000000e+00       1.201548229186e-11      -1.608410249127e-12      -1.482755669791e-15 
  104       4.036898223138e-10       6.207011286897e-14      -1.451635070473e-12       0.000000000000e+00       1.172669009913e-11      -1.594374958672e-12      -1.461078738665e-15 
  105       4.043699992972e-10       6.336944593263e-14      -1.506289730219e-12       0.000000000000e+00       1.144602748686e-11      -1.578291520619e-12      -1.450642823157e-15 
  106       4.050965993877e-10       6.466534021291e-14      -1.561328936797e-12       0.000000000000e+00       1.117355631849e-11      -1.560517594475e-12      -1.450804525458e-15 
  107       4.058707824150e-10       6.595688653372e-14      -1.616721497146e-12       0.000000000000e+00       1.090928078638e-11      -1.541441674750e-12      -1.460832240164e-15 
