# dimensionless total lensed [l(l+1)/2pi] C_l's
# for l=2 to 2500, i.e. number of multipoles equal to 2499
#
# -> if you prefer output in CAMB/HealPix/LensPix units/order, set 'format' to 'camb' in input file
# -> if you don't want to see such a header, set 'headers' to 'no' in input file
# -> for CMB lensing (phi), these are C_l^phi-phi for the lensing potential.
#    Remember the conversion factors:
#    C_l^dd (deflection) = l(l+1) C_l^phi-phi
#    C_l^gg (shear/convergence) = 1/4 (l(l+1))^2 C_l^phi-phi
#
# 1:l     2:TT                     3:EE                     4:TE                     5:BB                     6:phiphi                 7:TPhi                   8:Ephi               
    2       1.384418281088e-10       8.608089858825e-16       1.613442137649e-13       4.573208221903e-19       9.882430516929e-09       4.915493237382e-10      -8.351889053338e-13 
    3       1.326295754925e-10       1.119228434534e-15       1.855549383851e-13       9.148385821962e-19       6.229703371433e-09       3.564472112129e-10      -6.353040790556e-13 
    4       1.270830452678e-10       9.910558216048e-16       1.795175228126e-13       1.525163968292e-18       4.436782597590e-09       2.757099585837e-10      -4.178456234465e-13 
    5       1.230905084986e-10       6.953000913238e-16       1.613908542010e-13       2.288546773671e-18       3.384193185450e-09       2.222025308519e-10      -2.347093041391e-13 
    6       1.205424721825e-10       4.334867477278e-16       1.413650724698e-13       3.205288526652e-18       2.695387902696e-09       1.843011005019e-10      -1.003064363761e-13 
    7       1.191399250448e-10       2.835763887444e-16       1.250674198481e-13       4.275735805267e-18       2.213472224547e-09       1.561687844464e-10      -1.533961113716e-14 
    8       1.185448414930e-10       2.257823823760e-16       1.147704520610e-13       5.500272648890e-18       1.859504186737e-09       1.345798816881e-10       2.719778664072e-14 
    9       1.186351959655e-10       2.135141304479e-16       1.108716587063e-13       6.879312276079e-18       1.589738555034e-09       1.176035491734e-10       3.825069689614e-14 
   10       1.192727866696e-10       2.181595967009e-16       1.127497157292e-13       8.413288331240e-18       1.378244318897e-09       1.039421318880e-10       2.986167890789e-14 
   11       1.202545836776e-10       2.346969161179e-16       1.193722774179e-13       1.010264588795e-17       1.138141223574e-09       9.176830245334e-11       1.335998275272e-14 
   12       1.215783620689e-10       2.681279914321e-16       1.296027427460e-13       1.194783243366e-17       1.005479775283e-09       8.228929595450e-11      -3.779379147219e-15 
   13       1.231699551598e-10       3.221015136749e-16       1.423841987227e-13       1.394928904917e-17       8.956721031931e-10       7.413182088611e-11      -1.653477223457e-14 
   14       1.249908404639e-10       3.968159984428e-16       1.568419048549e-13       1.610744197765e-17       8.035683674946e-10       6.728561511321e-11      -2.266011804791e-14 
   15       1.270014971490e-10       4.921448528953e-16       1.722562118744e-13       1.842269475220e-17       7.254384955223e-10       6.144404278320e-11      -2.275159407024e-14 
   16       1.291451896705e-10       6.097052722980e-16       1.882427247921e-13       2.089542102005e-17       6.585026903436e-10       5.628712288950e-11      -1.906525454984e-14 
   17       1.315050433895e-10       7.521056882703e-16       2.044821862964e-13       2.352595816611e-17       6.006502504610e-10       5.168575216837e-11      -1.415836314280e-14 
   18       1.339541716189e-10       9.216687778888e-16       2.207376514409e-13       2.631460147285e-17       5.500584977594e-10       4.764877306193e-11      -9.993212246516e-15 
   19       1.365022820569e-10       1.120006503208e-15       2.369316430966e-13       2.926160113362e-17       5.060646345529e-10       4.413786905321e-11      -7.549316596961e-15 
   20       1.391679903494e-10       1.348377224640e-15       2.530107393180e-13       3.236715486351e-17       4.670414881831e-10       4.099539153603e-11      -7.397750995180e-15 
   21       1.419391336851e-10       1.608884052568e-15       2.688159928408e-13       3.563141008610e-17       4.324452385514e-10       3.817851915215e-11      -9.079896278094e-15 
   22       1.447656394787e-10       1.903856539836e-15       2.841457075652e-13       3.905445598144e-17       4.015209248041e-10       3.563929393427e-11      -1.159019729065e-14 
   23       1.476721343863e-10       2.235498822172e-15       2.988685580295e-13       4.263632824645e-17       3.738913961577e-10       3.336519120661e-11      -1.402676075352e-14 
   24       1.506812987752e-10       2.605957604514e-15       3.128610084256e-13       4.637700094920e-17       3.489621867820e-10       3.132145065277e-11      -1.552434131970e-14 
   25       1.537809284914e-10       3.017522687532e-15       3.259399228164e-13       5.027639397070e-17       3.264747755207e-10       2.945899950024e-11      -1.594658544342e-14 
   26       1.569333991795e-10       3.472544620070e-15       3.379110167526e-13       5.433436377683e-17       3.060566509847e-10       2.771322735145e-11      -1.546659660109e-14 
   27       1.601384785757e-10       3.973509772096e-15       3.486765069936e-13       5.855071014883e-17       2.874897386155e-10       2.609376796465e-11      -1.444035218684e-14 
   28       1.633974051263e-10       4.522954282412e-15       3.581731071454e-13       6.292516885089e-17       2.704804234979e-10       2.462028155815e-11      -1.331643059036e-14 
   29       1.667189926288e-10       5.123396158637e-15       3.663220997196e-13       6.745742299299e-17       2.549591188002e-10       2.328740940249e-11      -1.237152833840e-14 
   30       1.701016165735e-10       5.777350474692e-15       3.730463239749e-13       7.214708854280e-17       2.407760572592e-10       2.206653872580e-11      -1.186978351236e-14 
   31       1.735330851586e-10       6.487303789195e-15       3.782684090240e-13       7.699371110226e-17       2.276622030658e-10       2.091952741828e-11      -1.203140235947e-14 
   32       1.770191662488e-10       7.255606678418e-15       3.818790578305e-13       8.199677926469e-17       2.155622156551e-10       1.984708401322e-11      -1.268541634541e-14 
   33       1.805630178565e-10       8.084529152823e-15       3.837565055393e-13       8.715571156899e-17       2.044019723699e-10       1.885662289066e-11      -1.347771396591e-14 
   34       1.841598917919e-10       8.976308048079e-15       3.837802222331e-13       9.246985115207e-17       1.940386523163e-10       1.794855264235e-11      -1.404135024999e-14 
   35       1.878092479819e-10       9.933242012512e-15       3.818515791884e-13       9.793846849148e-17       1.844277945006e-10       1.711477268237e-11      -1.430351095261e-14 
   36       1.915049566572e-10       1.095762030656e-14       3.778804192302e-13       1.035607552504e-16       1.755006822869e-10       1.633829665989e-11      -1.428398780636e-14 
   37       1.952367829346e-10       1.205166729554e-14       3.717811630130e-13       1.093358189431e-16       1.671507880668e-10       1.559941234816e-11      -1.402258376529e-14 
   38       1.990099930658e-10       1.321745441463e-14       3.634776055031e-13       1.152626758120e-16       1.593622647148e-10       1.489822044161e-11      -1.360380716095e-14 
   39       2.028310076540e-10       1.445694853199e-14       3.529000903589e-13       1.213402511165e-16       1.521155869237e-10       1.423880082581e-11      -1.314277896073e-14 
   40       2.067014510292e-10       1.577202658233e-14       3.399845691607e-13       1.275673775897e-16       1.453483005693e-10       1.362286789020e-11      -1.278073153763e-14 
   41       2.106195479490e-10       1.716450168802e-14       3.246689443246e-13       1.339427900305e-16       1.389780948491e-10       1.304982821130e-11      -1.264618635021e-14 
   42       2.145861807951e-10       1.863622856639e-14       3.068800231251e-13       1.404651134764e-16       1.329901628654e-10       1.251756073842e-11      -1.271935767098e-14 
   43       2.185998797950e-10       2.018902066114e-14       2.865427669124e-13       1.471328666201e-16       1.273719005836e-10       1.202148129913e-11      -1.292635918236e-14 
   44       2.226546394325e-10       2.182461535397e-14       2.635838467755e-13       1.539444613333e-16       1.220865912035e-10       1.155404524038e-11      -1.317472549416e-14 
   45       2.267433621688e-10       2.354465728844e-14       2.379325003796e-13       1.608982044560e-16       1.170874134709e-10       1.110706529477e-11      -1.337512907993e-14 
   46       2.308703968272e-10       2.535065357319e-14       2.095234137510e-13       1.679923106546e-16       1.123690400851e-10       1.068001583319e-11      -1.351697723202e-14 
   47       2.350420416288e-10       2.724399711826e-14       1.782946968431e-13       1.752248884622e-16       1.079281595299e-10       1.027383277622e-11      -1.361346378652e-14 
   48       2.392628218548e-10       2.922597211635e-14       1.441871448362e-13       1.825939333473e-16       1.037478656109e-10       9.888514541654e-12      -1.368083178707e-14 
   49       2.435352964477e-10       3.129774861264e-14       1.071442851627e-13       1.900973250769e-16       9.979663281321e-11       9.523045847362e-12      -1.373854283364e-14 
   50       2.478604192281e-10       3.346041867369e-14       6.711046265154e-14       1.977328465255e-16       9.603829995585e-11       9.175902494445e-12      -1.380460008162e-14 
   51       2.522391868201e-10       3.571512906642e-14       2.402437310857e-14       2.054982522402e-16       9.246759309552e-11       8.846904024448e-12      -1.387962770985e-14 
   52       2.566711037347e-10       3.806297520691e-14      -2.217614421403e-14       2.133912139287e-16       8.908247375635e-11       8.535732233613e-12      -1.395876273390e-14 
   53       2.611535035191e-10       4.050495931870e-14      -7.155234236976e-14       2.214092990510e-16       8.587347879001e-11       8.241346447199e-12      -1.403606633610e-14 
   54       2.656813814571e-10       4.304198696019e-14      -1.241646120163e-13       2.295499691919e-16       8.282321377077e-11       7.961934662613e-12      -1.410446515088e-14 
   55       2.702495065115e-10       4.567484963564e-14      -1.800664598552e-13       2.378106215627e-16       7.991197882589e-11       7.695461622888e-12      -1.415755329274e-14 
   56       2.748597548026e-10       4.840417552504e-14      -2.392845884508e-13       2.461887293105e-16       7.713744331774e-11       7.441584403302e-12      -1.419565717700e-14 
   57       2.795153048850e-10       5.123046043194e-14      -3.018339471543e-13       2.546817332138e-16       7.449897141684e-11       7.200127120965e-12      -1.422117448724e-14 
   58       2.842184413313e-10       5.415407670007e-14      -3.677231784826e-13       2.632870016582e-16       7.199165603680e-11       6.970500654902e-12      -1.423685891618e-14 
   59       2.889704762345e-10       5.717526919853e-14      -4.369544270456e-13       2.720018306894e-16       6.960605115548e-11       6.751677046214e-12      -1.424583394733e-14 
   60       2.937716707098e-10       6.029415130700e-14      -5.095231484735e-13       2.808234440658e-16       6.732790413621e-11       6.542163898237e-12      -1.425160663679e-14 
   61       2.986219043549e-10       6.351069680867e-14      -5.854239549059e-13       2.897490437040e-16       6.514230386421e-11       6.340439956532e-12      -1.425704878058e-14 
   62       3.035230368088e-10       6.682472252512e-14      -6.646701169644e-13       2.987759741272e-16       6.304781876048e-11       6.146434013721e-12      -1.426104200361e-14 
   63       3.084769393871e-10       7.023589464158e-14      -7.472781200669e-13       3.079015951910e-16       6.104507163829e-11       5.960334044067e-12      -1.426110065380e-14 
   64       3.134847402183e-10       7.374372839276e-14      -8.332620145922e-13       3.171232365663e-16       5.913247887564e-11       5.782144566359e-12      -1.425431935976e-14 
   65       3.185467694784e-10       7.734758391811e-14      -9.226334163430e-13       3.264381993910e-16       5.730612284692e-11       5.611675676959e-12      -1.423735404852e-14 
   66       3.236625046251e-10       8.104666211729e-14      -1.015401507009e-12       3.358437579221e-16       5.555962435454e-11       5.448532082850e-12      -1.420640296317e-14 
   67       3.288305156327e-10       8.484000050545e-14      -1.111573034628e-12       3.453371611869e-16       5.388401506062e-11       5.292102134683e-12      -1.415718768047e-14 
   68       3.340492685706e-10       8.872654643207e-14      -1.211150244085e-12       3.549156490232e-16       5.227024472919e-11       5.141738184258e-12      -1.408633188623e-14 
   69       3.393198478363e-10       9.270540322983e-14      -1.314124180617e-12       3.645765002796e-16       5.071757804491e-11       4.997364608383e-12      -1.399586455017e-14 
   70       3.446436896697e-10       9.677562672552e-14      -1.420480024019e-12       3.743169973936e-16       4.922667785897e-11       4.858973851215e-12      -1.388959930451e-14 
   71       3.500217403888e-10       1.009361501624e-13      -1.530198987017e-12       3.841344148516e-16       4.779706181620e-11       4.726440035806e-12      -1.377183388584e-14 
   72       3.554544235759e-10       1.051857820343e-13      -1.643258262790e-12       3.940260212080e-16       4.642704217317e-11       4.599512890358e-12      -1.364736690105e-14 
   73       3.609416072655e-10       1.095232039192e-13      -1.759630972493e-12       4.039890811051e-16       4.511366561630e-11       4.477811674478e-12      -1.352151459327e-14 
   74       3.664825711303e-10       1.139469683137e-13      -1.879286112782e-12       4.140208572930e-16       4.385265307996e-11       4.360819105439e-12      -1.340012760778e-14 
   75       3.720759736687e-10       1.184554964667e-13      -2.002188503332e-12       4.241186126487e-16       4.263833956463e-11       4.247875284430e-12      -1.328960775795e-14 
   76       3.777204540390e-10       1.230470851154e-13      -2.128300868196e-12       4.342796008064e-16       4.146514331773e-11       4.138350185455e-12      -1.319534970109e-14 
   77       3.834166367974e-10       1.277199328994e-13      -2.257590634048e-12       4.445010316095e-16       4.033241571114e-11       4.032210861636e-12      -1.311670083631e-14 
   78       3.891654348175e-10       1.324721148508e-13      -2.390024282051e-12       4.547801029987e-16       3.924037053285e-11       3.929547117498e-12      -1.305110850991e-14 
   79       3.949674275954e-10       1.373015719675e-13      -2.525565315421e-12       4.651140135997e-16       3.818860472785e-11       3.830399749112e-12      -1.299559828840e-14 
   80       4.008228414510e-10       1.422061092302e-13      -2.664174250705e-12       4.754999645098e-16       3.717606957707e-11       3.734758131926e-12      -1.294675842589e-14 
   81       4.067315297285e-10       1.471833936186e-13      -2.805808609062e-12       4.859351610834e-16       3.620104187634e-11       3.642557808591e-12      -1.290072433153e-14 
   82       4.126929529972e-10       1.522309521280e-13      -2.950422907539e-12       4.964168147189e-16       3.526109511527e-11       3.553678076789e-12      -1.285316303694e-14 
   83       4.187061592530e-10       1.573461697859e-13      -3.097968650351e-12       5.069421446441e-16       3.435307065626e-11       3.467939577060e-12      -1.279925766366e-14 
   84       4.247701739377e-10       1.625263463000e-13      -3.248394173274e-12       5.175084190865e-16       3.347388406801e-11       3.385153857081e-12      -1.273489328790e-14 
   85       4.308852876583e-10       1.677688811386e-13      -3.401644166289e-12       5.281130827135e-16       3.262316084549e-11       3.305286789118e-12      -1.266047443776e-14 
   86       4.370519466362e-10       1.730711156382e-13      -3.557660055446e-12       5.387536536922e-16       3.180098682611e-11       3.228317947086e-12      -1.257771492046e-14 
   87       4.432703491477e-10       1.784302761174e-13      -3.716380131685e-12       5.494276885955e-16       3.100709731771e-11       3.154189522872e-12      -1.248849728381e-14 
   88       4.495404326128e-10       1.838434728778e-13      -3.877739539648e-12       5.601327848502e-16       3.024086231368e-11       3.082804787723e-12      -1.239487747520e-14 
   89       4.558618606833e-10       1.893076992068e-13      -4.041670266485e-12       5.708665831849e-16       2.950127170812e-11       3.014026553620e-12      -1.229908950057e-14 
   90       4.622340103319e-10       1.948198303790e-13      -4.208101130671e-12       5.816267700783e-16       2.878692051099e-11       2.947675634662e-12      -1.220355008337e-14 
   91       4.686559589407e-10       2.003766226581e-13      -4.376957770808e-12       5.924110802070e-16       2.809599406326e-11       2.883529308450e-12      -1.211086332360e-14 
   92       4.751264713897e-10       2.059747122992e-13      -4.548162634441e-12       6.032172988935e-16       2.742625325204e-11       2.821319777468e-12      -1.202382535676e-14 
   93       4.816443202823e-10       2.116106788892e-13      -4.721636328353e-12       6.140433217943e-16       2.677558983726e-11       2.760797963132e-12      -1.194478690287e-14 
   94       4.882093297596e-10       2.172812484350e-13      -4.897301926076e-12       6.248873389156e-16       2.614382008493e-11       2.701939205218e-12      -1.187362112515e-14 
   95       4.948214655346e-10       2.229831191166e-13      -5.075081290557e-12       6.357476829286e-16       2.553113481598e-11       2.644765798843e-12      -1.180945732902e-14 
   96       5.014805075162e-10       2.287128995566e-13      -5.254893777792e-12       6.466227775857e-16       2.493754646532e-11       2.589283785159e-12      -1.175129173997e-14 
   97       5.081860414714e-10       2.344671087050e-13      -5.436656244324e-12       6.575111409543e-16       2.436288212283e-11       2.535482309540e-12      -1.169798334837e-14 
   98       5.149374506860e-10       2.402421757245e-13      -5.620283054740e-12       6.684113886504e-16       2.380677657434e-11       2.483332979777e-12      -1.164824975437e-14 
   99       5.217339076269e-10       2.460344398754e-13      -5.805686089174e-12       6.793222370727e-16       2.326866534259e-11       2.432789224272e-12      -1.160066301271e-14 
  100       5.285743656029e-10       2.518401504008e-13      -5.992774750802e-12       6.902425066358e-16       2.274777772825e-11       2.383785650227e-12      -1.155364547757e-14 
  101       5.354575504270e-10       2.576554664119e-13      -6.181455973343e-12       7.011711250044e-16       2.224312985082e-11       2.336237401839e-12      -1.150546564742e-14 
  102       5.423819520772e-10       2.634764567726e-13      -6.371634228556e-12       7.121071303269e-16       2.175351768967e-11       2.290039518492e-12      -1.145423400987e-14 
  103       5.493458163584e-10       2.692990999849e-13      -6.563211533742e-12       7.230496744691e-16       2.127751012498e-11       2.245066292949e-12      -1.139789888651e-14 
  104       5.563474472115e-10       2.751193667801e-13      -6.756088840527e-12       7.339979507917e-16       2.081378694641e-11       2.201202098440e-12      -1.133472648442e-14 
  105       5.633861781098e-10       2.809334808467e-13      -6.950170398736e-12       7.449509594071e-16       2.036221986908e-11       2.158439994915e-12      -1.126482385434e-14 
  106       5.704615169493e-10       2.867376932728e-13      -7.145359998743e-12       7.559077160934e-16       1.992292525325e-11       2.116795308552e-12      -1.118881487327e-14 
  107       5.775728422543e-10       2.925282037692e-13      -7.341559665221e-12       7.668673272942e-16       1.949592904698e-11       2.076275059923e-12      -1.110737556092e-14 
